"","theta","item","info","prob","diff"
"1",-6.5,"V1",0.00299424674751973,0.00300326635632678,-0.694952988041792
"2",-6.5,"V2",0.00482265661950887,0.00484614170897231,-1.17528550777643
"3",-6.5,"V3",0.00954318448678898,0.00963603770952843,-1.86743748390225
"4",-6.5,"V4",0.00348408599316118,0.00349631017802212,-0.847455335120406
"5",-6.5,"V5",0.00372281181272065,0.00373677530238114,-0.914211516394273
"6",-6.5,"V6",0.00312751678330666,0.00313735980988333,-0.738768634009751
"7",-6.5,"V7",0.0116054852133056,0.0117433924802508,-2.06734835207458
"8",-6.5,"V8",0.0268245240158087,0.0275854828816209,-2.93750748030197
"9",-6.5,"V9",0.00732318687357026,0.00737761609278274,-1.59810025008907
"10",-6.5,"V10",0.00520588817000166,0.00523327534079423,-1.25252908015508
"11",-6.5,"V11",0.0190453918604944,0.0194226304334487,-2.57829735260356
"12",-6.5,"V12",0.00831650900705093,0.00838684823028883,-1.72733172875683
"13",-6.5,"V13",0.00132891902681038,0.00133068976205322,0.120726277183337
"14",-6.5,"V14",0.00176163705937919,0.00176475140690737,-0.162020865953684
"15",-6.5,"V15",0.00172500555286741,0.00172799150751746,-0.140933962963528
"16",-6.5,"V16",0.00183010357260269,0.00183346516712173,-0.200287579363619
"17",-6.5,"V17",0.00521349874079108,0.00524096647033425,-1.2540053917575
"18",-6.5,"V18",0.00154443602828187,0.0015468287073317,-0.0299995870535039
"19",-6.5,"V19",0.00217788999637383,0.00218265397474731,-0.374971316409024
"20",-6.5,"V20",0.017908615235679,0.0182413625431081,-2.51434619124433
"21",-6.5,"V21",0.00333782864364138,0.00334904474434098,-0.804274540595885
"22",-6.5,"V22",0.00326687156884483,0.00327761432450503,-0.782643536151985
"23",-6.5,"V23",0.0102651528460312,0.0103727467205601,-1.94185349857722
"24",-6.5,"V24",0.00326622778993354,0.00327696629805211,-0.782445153602013
"25",-6.5,"V25",0.00226047231967446,0.0022656052869909,-0.412354854780223
"26",-6.5,"V26",0.00221367847285763,0.00221860066175396,-0.391342451018105
"27",-6.5,"V27",0.00172923760608739,0.00173223825546107,-0.143392822902256
"28",-6.5,"V28",0.00138150273618688,0.00138341657761409,0.0818146842478843
"29",-6.5,"V29",0.0132380729412143,0.0134181188548163,-2.20235962327933
"30",-6.5,"V30",0.00708216291992097,0.00713304322557894,-1.56414128924564
"31",-6.5,"V31",0.00448529398238531,0.00450559436294875,-1.10208031258256
"32",-6.5,"V32",0.00417445758034784,0.00419203070175227,-1.02963083379668
"33",-6.5,"V33",0.00648252959001843,0.00652510660624124,-1.47444850039087
"34",-6.5,"V34",0.00146113083476608,0.00146327199971122,0.0256159114508497
"35",-6.5,"V35",0.00890039626376847,0.00898105562388783,-1.7963837776056
"36",-6.5,"V36",0.0138489704209424,0.0140462680675684,-2.24874731404659
"37",-6.5,"V37",0.00356221185281562,0.00357499242364474,-0.869789175881536
"38",-6.5,"V38",0.000241307818633714,0.000241366076216463,1.82895439330989
"39",-6.5,"V39",2.35503772640516e-05,2.35509319104454e-05,4.15632161550674
"40",-6.5,"V40",0.0169591272972401,0.0172569288920245,-2.45786602396384
"41",-6.5,"V41",0.000373350250039088,0.000373489744628431,1.39224645174654
"42",-6.5,"V42",0.00312818589367394,0.00313803314569744,-0.738983905051686
"43",-6.5,"V43",0.00125290437772537,0.00125447809301122,0.179780389426151
"44",-6.5,"V44",0.000530599156631209,0.000530880991258088,1.04044166180745
"45",-6.5,"V45",0.0102673614731185,0.010375002142577,-1.94207319130362
"46",-6.5,"V46",0.00389536219085863,0.00391065541664637,-0.95986802873198
"47",-6.5,"V47",0.00858866812205802,0.00866372831029258,-1.76009134835349
"48",-6.5,"V48",0.00407732799964118,0.00409408956904051,-1.00589157944051
"49",-6.5,"V49",0.00428284438659877,0.00430134596369819,-1.05548333291734
"50",-6.5,"V50",0.00890895869763908,0.00898977474765262,-1.79736293989902
"51",-6.5,"V51",0.0290986722356016,0.0299985874868051,-3.02385276908498
"52",-6.5,"V52",0.00179573634653615,0.00179897264912846,-0.181261065239454
"53",-6.5,"V53",0.0106935790585038,0.0108104447747314,-1.98362679877156
"54",-6.5,"V54",0.0190405499554269,0.0194175928682229,-2.57803281587365
"55",-6.5,"V55",0.00155664688786582,0.00155907761086251,-0.0378993865561951
"56",-6.5,"V56",0.00347757499888924,0.00348975337752519,-0.845571646040253
"57",-6.5,"V57",0.00563680500843132,0.00566894191081956,-1.33293228084376
"58",-6.5,"V58",0.00270662162590833,0.002713987353262,-0.593381299498677
"59",-6.5,"V59",0.00922063301027389,0.00930725806292375,-1.83239009489464
"60",-6.5,"V60",0.00459149744188395,0.0046127751363424,-1.12569782557463
"61",-6.5,"V61",0.0160173713322496,0.0162824908402112,-2.39875157723556
"62",-6.5,"V62",0.000249154146942024,0.000249216255684121,1.79694029438603
"63",-6.5,"V63",0.00114220348999342,0.00114351110764673,0.272507665406372
"64",-6.5,"V64",0.00685729474134361,0.0069049733989843,-1.53141557848288
"65",-6.5,"V65",0.00293699782566462,0.00294567482584423,-0.67553267663813
"66",-6.5,"V66",0.000101421352806128,0.000101431641183961,2.69602403546251
"67",-6.5,"V67",0.0434827550041012,0.045558315076732,-3.45786660897764
"68",-6.5,"V68",0.0318147201244341,0.0328969279960087,-3.11907420020112
"69",-6.5,"V69",0.000556716093028885,0.000557026371407328,0.992340792154458
"70",-6.5,"V70",0.000394030934267263,0.000394186317119867,1.33829261032173
"71",-6.5,"V71",0.0131795590477791,0.0133579950803456,-2.19780782468689
"72",-6.5,"V72",0.00777934806391436,0.00784082662609484,-1.65946071436295
"73",-6.5,"V73",0.0318221196488661,0.032904848718022,-3.11932313531716
"74",-6.5,"V74",0.0190324032061863,0.0194091170300733,-2.57758757390686
"75",-6.5,"V75",0.00169147097213877,0.00169434176615932,-0.121234826664866
"76",-6.5,"V76",0.00126144217721181,0.00126303744078864,0.172971955978446
"77",-6.5,"V77",0.00578696820718008,0.0058208505078144,-1.35952896513552
"78",-6.5,"V78",0.000174922667858254,0.000174953276507215,2.15081664249403
"79",-6.5,"V79",0.0138438316264317,0.0140409807673405,-2.24836546028706
"80",-6.5,"V80",0.0492794416471888,0.05198152007667,-3.59651427662188
"81",-6.4,"V1",0.00330706498248579,0.00331807460154722,-0.694952988041792
"82",-6.4,"V2",0.00532443102133364,0.00535308655702059,-1.17528550777643
"83",-6.4,"V3",0.0105255054049754,0.0106386870674955,-1.86743748390225
"84",-6.4,"V4",0.00384768033323371,0.00386260001208709,-0.847455335120406
"85",-6.4,"V5",0.00411111137965224,0.00412815302706712,-0.914211516394273
"86",-6.4,"V6",0.00345416075570205,0.0034661751257041,-0.738768634009751
"87",-6.4,"V7",0.0127944213891712,0.0129624464059996,-2.06734835207458
"88",-6.4,"V8",0.0294744139669641,0.0303984816538219,-2.93750748030197
"89",-6.4,"V9",0.0080808282937506,0.00814720524708879,-1.59810025008907
"90",-6.4,"V10",0.00574706822824231,0.00578048220273849,-1.25252908015508
"91",-6.4,"V11",0.0209626849583886,0.021421568557868,-2.57829735260356
"92",-6.4,"V12",0.00917497114324141,0.0092607323060864,-1.72733172875683
"93",-6.4,"V13",0.00146827166331167,0.00147043383898651,0.120726277183337
"94",-6.4,"V14",0.00194618755232337,0.00194999001337563,-0.162020865953684
"95",-6.4,"V15",0.00190573323283233,0.00190937896084846,-0.140933962963528
"96",-6.4,"V16",0.00202179745518699,0.00202590173301884,-0.200287579363619
"97",-6.4,"V17",0.00575546065290178,0.0057889728596718,-1.2540053917575
"98",-6.4,"V18",0.00170631056815954,0.00170923204233408,-0.0299995870535039
"99",-6.4,"V19",0.0024058360323772,0.00241165209822005,-0.374971316409024
"100",-6.4,"V20",0.0197163580536925,0.0201212216128874,-2.51434619124433
"101",-6.4,"V21",0.00368627391479581,0.00369996364577588,-0.804274540595885
"102",-6.4,"V22",0.00360796362208953,0.0036210758121267,-0.782643536151985
"103",-6.4,"V23",0.01132003661159,0.011451165809998,-1.94185349857722
"104",-6.4,"V24",0.00360725311814234,0.00362036012558124,-0.782445153602013
"105",-6.4,"V25",0.00249701816910618,0.00250328460290935,-0.412354854780223
"106",-6.4,"V26",0.00244535177808273,0.00245136094858296,-0.391342451018105
"107",-6.4,"V27",0.0019104069692452,0.00191407063564343,-0.143392822902256
"108",-6.4,"V28",0.00152635246107715,0.00152868935221272,0.0818146842478843
"109",-6.4,"V29",0.0145891279376858,0.0148084171563627,-2.20235962327933
"110",-6.4,"V30",0.00781527024294741,0.00787732245195956,-1.56414128924564
"111",-6.4,"V31",0.00495232196658373,0.00497709342555039,-1.10208031258256
"112",-6.4,"V32",0.00460942381764329,0.00463086876314476,-1.02963083379668
"113",-6.4,"V33",0.00715448026417096,0.0072064126474158,-1.47444850039087
"114",-6.4,"V34",0.00161430240604517,0.00161691682606759,0.0256159114508497
"115",-6.4,"V35",0.00981790343067588,0.00991623515023055,-1.7963837776056
"116",-6.4,"V36",0.0152603590492316,0.0155006285341864,-2.24874731404659
"117",-6.4,"V37",0.00393389421535717,0.00394949270800777,-0.869789175881536
"118",-6.4,"V38",0.000266672844470463,0.000266743996830308,1.82895439330989
"119",-6.4,"V39",2.60270631303134e-05,2.60277405735927e-05,4.15632161550674
"120",-6.4,"V40",0.018674885660065,0.019037304627547,-2.45786602396384
"121",-6.4,"V41",0.000412583425195003,0.000412753790886895,1.39224645174654
"122",-6.4,"V42",0.00345489926010694,0.00346691878597549,-0.738983905051686
"123",-6.4,"V43",0.00138430818096789,0.00138622981406529,0.179780389426151
"124",-6.4,"V44",0.000586337281014741,0.000586681476169221,1.04044166180745
"125",-6.4,"V45",0.0113224668394499,0.0114536530066466,-1.94207319130362
"126",-6.4,"V46",0.00430150197549597,0.00432016580810549,-0.95986802873198
"127",-6.4,"V47",0.00947467225023777,0.00956618412902824,-1.76009134835349
"128",-6.4,"V48",0.00450226632984922,0.0045227213381518,-1.00589157944051
"129",-6.4,"V49",0.00472899552202654,0.00475157296769386,-1.05548333291734
"130",-6.4,"V50",0.009827330526197,0.00992585308567541,-1.79736293989902
"131",-6.4,"V51",0.0319570406291175,0.0330492966373404,-3.02385276908498
"132",-6.4,"V52",0.00198384483039149,0.00198779616398103,-0.181261065239454
"133",-6.4,"V53",0.0117914049997224,0.0119338210854212,-1.98362679877156
"134",-6.4,"V54",0.0209573777817778,0.0214160238597387,-2.57803281587365
"135",-6.4,"V55",0.00171979683506403,0.00172276475345979,-0.0378993865561951
"136",-6.4,"V56",0.00384049515545317,0.00385535894807164,-0.845571646040253
"137",-6.4,"V57",0.00622221129228477,0.00626141663050554,-1.33293228084376
"138",-6.4,"V58",0.00298957262099989,0.00299856400710459,-0.593381299498677
"139",-6.4,"V59",0.0101704549462183,0.0102760521949312,-1.83239009489464
"140",-6.4,"V60",0.00506946954862899,0.00509543298594323,-1.12569782557463
"141",-6.4,"V61",0.0176414612006614,0.0179641727015111,-2.39875157723556
"142",-6.4,"V62",0.00027534348345718,0.000275419339269624,1.79694029438603
"143",-6.4,"V63",0.00126202650841468,0.00126362325213803,0.272507665406372
"144",-6.4,"V64",0.00756748767863855,0.00762563803406513,-1.53141557848288
"145",-6.4,"V65",0.00324387437185641,0.00325446592028269,-0.67553267663813
"146",-6.4,"V66",0.000112085538199905,0.000112098104184867,2.69602403546251
"147",-6.4,"V67",0.0475986541985535,0.0501096291301107,-3.45786660897764
"148",-6.4,"V68",0.0349186622804395,0.036231374800364,-3.11907420020112
"149",-6.4,"V69",0.000615194353698165,0.000615573284166345,0.992340792154458
"150",-6.4,"V70",0.000435435424988138,0.000435625194298046,1.33829261032173
"151",-6.4,"V71",0.0145248256461748,0.014742156834302,-2.19780782468689
"152",-6.4,"V72",0.00858334728634278,0.00865831368216149,-1.65946071436295
"153",-6.4,"V73",0.0349267257358966,0.0362400682852136,-3.11932313531716
"154",-6.4,"V74",0.0209484481638419,0.0214066947436915,-2.57758757390686
"155",-6.4,"V75",0.00186869848059694,0.00187220362701796,-0.121234826664866
"156",-6.4,"V76",0.00139373891041694,0.00139568685220636,0.172971955978446
"157",-6.4,"V77",0.00638776559422763,0.0064290989069834,-1.35952896513552
"158",-6.4,"V78",0.000193312331471174,0.00019334971558369,2.15081664249403
"159",-6.4,"V79",0.015254713485664,0.0154948023866658,-2.24836546028706
"160",-6.4,"V80",0.0538715699494543,0.0571361043722963,-3.59651427662188
"161",-6.3,"V1",0.00365232253294701,0.0036657603317569,-0.694952988041792
"162",-6.3,"V2",0.00587778619879971,0.00591274677320374,-1.17528550777643
"163",-6.3,"V3",0.0116064953791489,0.0117444269433772,-1.86743748390225
"164",-6.3,"V4",0.00424889162357488,0.00426709976397056,-0.847455335120406
"165",-6.3,"V5",0.00453953809543189,0.00456033474844981,-0.914211516394273
"166",-6.3,"V6",0.00381465631074994,0.00382932000243095,-0.738768634009751
"167",-6.3,"V7",0.0141015477237184,0.0143062155264064,-2.06734835207458
"168",-6.3,"V8",0.0323669775202558,0.0334884540767032,-2.93750748030197
"169",-6.3,"V9",0.00891541155466573,0.00899634579228,-1.59810025008907
"170",-6.3,"V10",0.00634377707129846,0.00638453941483808,-1.25252908015508
"171",-6.3,"V11",0.0230633128431262,0.0236212775985121,-2.57829735260356
"172",-6.3,"V12",0.0101201883700721,0.0102247335461621,-1.72733172875683
"173",-6.3,"V13",0.00162218937029145,0.00162482944100381,0.120726277183337
"174",-6.3,"V14",0.0021499879448357,0.00215463037689674,-0.162020865953684
"175",-6.3,"V15",0.00210531532010781,0.00210976643451602,-0.140933962963528
"176",-6.3,"V16",0.00223347989131029,0.00223849073206784,-0.200287579363619
"177",-6.3,"V17",0.00635302952865761,0.00639391163464931,-1.2540053917575
"178",-6.3,"V18",0.00188508702406615,0.00188865403814194,-0.0299995870535039
"179",-6.3,"V19",0.00265751176615183,0.00266461192285123,-0.374971316409024
"180",-6.3,"V20",0.0216980151018028,0.0221904302986417,-2.51434619124433
"181",-6.3,"V21",0.00407079398577615,0.00408750165556035,-0.804274540595885
"182",-6.3,"V22",0.00398438113212641,0.0040003842059214,-0.782643536151985
"183",-6.3,"V23",0.0124804958910672,0.0126402723768276,-1.94185349857722
"184",-6.3,"V24",0.00398359710102293,0.00399959385200392,-0.782445153602013
"185",-6.3,"V25",0.00275817936434952,0.00276582917537688,-0.412354854780223
"186",-6.3,"V26",0.00270113871875458,0.00270847455315969,-0.391342451018105
"187",-6.3,"V27",0.00211047644148661,0.00211494945267398,-0.143392822902256
"188",-6.3,"V28",0.00168633806963115,0.00168919143734314,0.0818146842478843
"189",-6.3,"V29",0.016073375104751,0.0163403832288156,-2.20235962327933
"190",-6.3,"V30",0.00862291589894882,0.00869858121408689,-1.56414128924564
"191",-6.3,"V31",0.00546743690603918,0.00549766118453917,-1.10208031258256
"192",-6.3,"V32",0.00508924268975899,0.00511541011035612,-1.02963083379668
"193",-6.3,"V33",0.00789495173955371,0.00795828605651097,-1.47444850039087
"194",-6.3,"V34",0.00178347345187484,0.00178666562593374,0.0256159114508497
"195",-6.3,"V35",0.0108278648204477,0.0109477173353014,-1.7963837776056
"196",-6.3,"V36",0.0168104510350273,0.0171029623563915,-2.24874731404659
"197",-6.3,"V37",0.00434401596887072,0.00436305219331229,-0.869789175881536
"198",-6.3,"V38",0.000294702537117695,0.00029478943793041,1.82895439330989
"199",-6.3,"V39",2.8764195778329e-05,2.87650232048889e-05,4.15632161550674
"200",-6.3,"V40",0.0205565427057975,0.0209974349816042,-2.45786602396384
"201",-6.3,"V41",0.000455935617894051,0.000456143684955376,1.39224645174654
"202",-6.3,"V42",0.00381547129299964,0.00383014127518753,-0.738983905051686
"203",-6.3,"V43",0.00152945115013583,0.00153179755388191,0.179780389426151
"204",-6.3,"V44",0.000647922952631261,0.000648343301668079,1.04044166180745
"205",-6.3,"V45",0.0124831687278133,0.012643014544588,-1.94207319130362
"206",-6.3,"V46",0.00474957791028124,0.00477235326597651,-0.95986802873198
"207",-6.3,"V47",0.0104500942985937,0.0105616425928528,-1.76009134835349
"208",-6.3,"V48",0.00497104364760744,0.00499600370058368,-1.00589157944051
"209",-6.3,"V49",0.00522112873775152,0.0052486773516937,-1.05548333291734
"210",-6.3,"V50",0.0108382397716868,0.01095832465084,-1.79736293989902
"211",-6.3,"V51",0.0350737477829477,0.0363986063253775,-3.02385276908498
"212",-6.3,"V52",0.00219157118423945,0.00219639533671459,-0.181261065239454
"213",-6.3,"V53",0.0129988678903253,0.0131723794712602,-1.98362679877156
"214",-6.3,"V54",0.0230575006762681,0.0236151772739481,-2.57803281587365
"215",-6.3,"V55",0.00189998088961107,0.00190360460008453,-0.0378993865561951
"216",-6.3,"V56",0.00424096367857553,0.00425910364241234,-0.845571646040253
"217",-6.3,"V57",0.00686755915277198,0.00691538165622321,-1.33293228084376
"218",-6.3,"V58",0.00330190580037183,0.00331288098076454,-0.593381299498677
"219",-6.3,"V59",0.0112158350854567,0.0113445335263881,-1.83239009489464
"220",-6.3,"V60",0.00559663033623506,0.0056283081893089,-1.12569782557463
"221",-6.3,"V61",0.0194233670734799,0.0198160426185397,-2.39875157723556
"222",-6.3,"V62",0.000304283982299794,0.00030437662743112,1.79694029438603
"223",-6.3,"V63",0.00139438435294327,0.00139633410186731,0.272507665406372
"224",-6.3,"V64",0.00834996866252678,0.0084208798804884,-1.53141557848288
"225",-6.3,"V65",0.00358258273973572,0.00359551043502409,-0.67553267663813
"226",-6.3,"V66",0.000123870756399388,0.000123886104166194,2.69602403546251
"227",-6.3,"V67",0.0520545398813056,0.0550893796292401,-3.45786660897764
"228",-6.3,"V68",0.0382986608662021,0.0398898619528169,-3.11907420020112
"229",-6.3,"V69",0.000679806883872985,0.000680269650670608,0.992340792154458
"230",-6.3,"V70",0.00048118647617217,0.00048141823969368,1.33829261032173
"231",-6.3,"V71",0.016002753609475,0.0162673813039636,-2.19780782468689
"232",-6.3,"V72",0.0094688132933186,0.00956021092627344,-1.65946071436295
"233",-6.3,"V73",0.0383074350513712,0.039899396926467,-3.11932313531716
"234",-6.3,"V74",0.0230477213530705,0.0236049132842264,-2.57758757390686
"235",-6.3,"V75",0.00206441816182379,0.00206869767188144,-0.121234826664866
"236",-6.3,"V76",0.00153986761701287,0.00154224614016973,0.172971955978446
"237",-6.3,"V77",0.00705003572004697,0.00710045214064861,-1.35952896513552
"238",-6.3,"V78",0.000213634478344281,0.000213680137545462,2.15081664249403
"239",-6.3,"V79",0.0168042525753611,0.017096544405987,-2.24836546028706
"240",-6.3,"V80",0.0588281646703765,0.0627679845555411,-3.59651427662188
"241",-6.2,"V1",0.00403333009672102,0.00404973041314013,-0.694952988041792
"242",-6.2,"V2",0.00648788688870684,0.0065305347731299,-1.17528550777643
"243",-6.2,"V3",0.0127955322617632,0.0129635868456684,-1.86743748390225
"244",-6.2,"V4",0.00469153962205131,0.00471375914735054,-0.847455335120406
"245",-6.2,"V5",0.00501215652480505,0.00503753326621325,-0.914211516394273
"246",-6.2,"V6",0.00421245354490839,0.00423034940096262,-0.738768634009751
"247",-6.2,"V7",0.0155378289023233,0.0157870601711715,-2.06734835207458
"248",-6.2,"V8",0.0355203951686457,0.036880571740556,-2.93750748030197
"249",-6.2,"V9",0.00983443499008326,0.00993310149540121,-1.59810025008907
"250",-6.2,"V10",0.00700155213854382,0.00705127258359194,-1.25252908015508
"251",-6.2,"V11",0.0253627302864119,0.0260408564933174,-2.57829735260356
"252",-6.2,"V12",0.011160522151629,0.0112879397350921,-1.72733172875683
"253",-6.2,"V13",0.00179218394931698,0.00179540743718247,0.120726277183337
"254",-6.2,"V14",0.00237502764519938,0.00238069535557543,-0.162020865953684
"255",-6.2,"V15",0.00232570106930629,0.00233113526091095,-0.140933962963528
"256",-6.2,"V16",0.00246721520127683,0.00247333257530489,-0.200287579363619
"257",-6.2,"V17",0.00701175015341951,0.00706161658217313,-1.2540053917575
"258",-6.2,"V18",0.00208251596842094,0.00208687099898735,-0.0299995870535039
"259",-6.2,"V19",0.00293535927956499,0.00294402657202176,-0.374971316409024
"260",-6.2,"V20",0.0238684773407319,0.0244671171629999,-2.51434619124433
"261",-6.2,"V21",0.0044950575685118,0.00451544682857348,-0.804274540595885
"262",-6.2,"V22",0.00439971923931178,0.00441924900104502,-0.782643536151985
"263",-6.2,"V23",0.0137564813590941,0.0139511149679428,-1.94185349857722
"264",-6.2,"V24",0.00439885421056025,0.00441837625932925,-0.782445153602013
"265",-6.2,"V25",0.00304648700905036,0.00305582507594514,-0.412354854780223
"266",-6.2,"V26",0.00298351998779133,0.00299247489378124,-0.391342451018105
"267",-6.2,"V27",0.00233139991901765,0.00233686083759192,-0.143392822902256
"268",-6.2,"V28",0.00186302978510647,0.00186651365834325,0.0818146842478843
"269",-6.2,"V29",0.017702928301328,0.0180279347320304,-2.20235962327933
"270",-6.2,"V30",0.0095123833441744,0.00960463230590605,-1.56414128924564
"271",-6.2,"V31",0.00603547090024225,0.00607234426511634,-1.10208031258256
"272",-6.2,"V32",0.00561843603804875,0.00565036263596668,-1.02963083379668
"273",-6.2,"V33",0.008710683619696,0.0087879109994299,-1.47444850039087
"274",-6.2,"V34",0.00197030246219454,0.00197419992754847,0.0256159114508497
"275",-6.2,"V35",0.0119391324848203,0.0120851841610262,-1.7963837776056
"276",-6.2,"V36",0.0185117662139082,0.018867758525692,-2.24874731404659
"277",-6.2,"V37",0.00479647722391442,0.00481970679752856,-0.869789175881536
"278",-6.2,"V38",0.00032567647911712,0.000325782613428332,1.82895439330989
"279",-6.2,"V39",3.17891603158259e-05,3.17901709307937e-05,4.15632161550674
"280",-6.2,"V40",0.0226184851871813,0.0231546216929237,-2.45786602396384
"281",-6.2,"V41",0.000503838442918065,0.000504092552219268,1.39224645174654
"282",-6.2,"V42",0.00421335278699305,0.00423125631701331,-0.738983905051686
"283",-6.2,"V43",0.00168976044520122,0.00169262542603408,0.179780389426151
"284",-6.2,"V44",0.000715967961858181,0.000716481307321923,1.04044166180745
"285",-6.2,"V45",0.0137594195364973,0.0139541374895753,-1.94207319130362
"286",-6.2,"V46",0.00524383016787463,0.00527162014684728,-0.95986802873198
"287",-6.2,"V47",0.0115235259418348,0.0116594691629977,-1.76009134835349
"288",-6.2,"V48",0.00548808410145221,0.00551853836716205,-1.00589157944051
"289",-6.2,"V49",0.00576387447203775,0.00579748530793345,-1.05548333291734
"290",-6.2,"V50",0.0119505455880837,0.0120968800961442,-1.79736293989902
"291",-6.2,"V51",0.0384674100804876,0.040073277663156,-3.02385276908498
"292",-6.2,"V52",0.00242094214820309,0.0024268316601096,-0.181261065239454
"293",-6.2,"V53",0.0143262494903287,0.014537591043682,-1.98362679877156
"294",-6.2,"V54",0.0253563711006964,0.026034147960738,-2.57803281587365
"295",-6.2,"V55",0.00209896309900856,0.00210338733729927,-0.0378993865561951
"296",-6.2,"V56",0.0046827936191411,0.00470492998530775,-0.845571646040253
"297",-6.2,"V57",0.00757879856942245,0.00763712423601884,-1.33293228084376
"298",-6.2,"V58",0.00364662871458967,0.00366002449388551,-0.593381299498677
"299",-6.2,"V59",0.012365889299073,0.0125227075022602,-1.83239009489464
"300",-6.2,"V60",0.00617791707963782,0.00621656273183668,-1.12569782557463
"301",-6.2,"V61",0.0213769454122014,0.0218545675343133,-2.39875157723556
"302",-6.2,"V62",0.000336264279034818,0.000336377428809431,1.79694029438603
"303",-6.2,"V63",0.00154058052224726,0.00154296125167142,0.272507665406372
"304",-6.2,"V64",0.00921181875062638,0.00929827670022023,-1.53141557848288
"305",-6.2,"V65",0.00395637353885124,0.00397215152660152,-0.67553267663813
"306",-6.2,"V66",0.000136894790286002,0.000136913535602233,2.69602403546251
"307",-6.2,"V67",0.0568682876272261,0.0605324672142732,-3.45786660897764
"308",-6.2,"V68",0.04197364727486,0.0439009397892383,-3.11907420020112
"309",-6.2,"V69",0.000751195306208043,0.0007517604499822,0.992340792154458
"310",-6.2,"V70",0.000531739453062332,0.000532022501003906,1.33829261032173
"311",-6.2,"V71",0.0176254172268512,0.0179475310994157,-2.19780782468689
"312",-6.2,"V72",0.0104436452676065,0.0105550544418775,-1.65946071436295
"313",-6.2,"V73",0.041983179545868,0.0439113896904111,-3.11932313531716
"314",-6.2,"V74",0.0253456713473761,0.0260228606223462,-2.57758757390686
"315",-6.2,"V75",0.00228054246643903,0.00228576719812304,-0.121234826664866
"316",-6.2,"V76",0.00170126497479029,0.00170416916734121,0.172971955978446
"317",-6.2,"V77",0.00777987070158408,0.00784135759044531,-1.35952896513552
"318",-6.2,"V78",0.000236092001084152,0.000236147766851941,2.15081664249403
"319",-6.2,"V79",0.0185049653703257,0.0188606910367078,-2.24836546028706
"320",-6.2,"V80",0.064165224231426,0.0689144217576121,-3.59651427662188
"321",-6.1,"V1",0.00445372451193243,0.00447373885124154,-0.694952988041792
"322",-6.1,"V2",0.00716038470710565,0.00721240347093318,-1.17528550777643
"323",-6.1,"V3",0.0141027687088459,0.0143074724775415,-1.86743748390225
"324",-6.1,"V4",0.00517981608669871,0.00520692818785216,-0.847455335120406
"325",-6.1,"V5",0.00553342483580725,0.00556438724117703,-0.914211516394273
"326",-6.1,"V6",0.00465134137679442,0.00467317998799462,-0.738768634009751
"327",-6.1,"V7",0.0171150757747412,0.0174184791921071,-2.06734835207458
"328",-6.1,"V8",0.0389533400989589,0.0406018503508736,-2.93750748030197
"329",-6.1,"V9",0.0108460585322155,0.0109663186775532,-1.59810025008907
"330",-6.1,"V10",0.00772644786114978,0.00778708657853132,-1.25252908015508
"331",-6.1,"V11",0.027877245717021,0.0287009926989248,-2.57829735260356
"332",-6.1,"V12",0.0123050509682435,0.0124603103010418,-1.72733172875683
"333",-6.1,"V13",0.00197992179395992,0.00198385748447864,0.120726277183337
"334",-6.1,"V14",0.00262349757642601,0.00263041666827475,-0.162020865953684
"335",-6.1,"V15",0.00256903734189568,0.00257567142518621,-0.140933962963528
"336",-6.1,"V16",0.0027252764923547,0.00273274438422421,-0.200287579363619
"337",-6.1,"V17",0.0077376848899624,0.0077985015158552,-1.2540053917575
"338",-6.1,"V18",0.00230052614351632,0.0023058430557139,-0.0299995870535039
"339",-6.1,"V19",0.00324206574351817,0.003252645445915,-0.374971316409024
"340",-6.1,"V20",0.0262435121021137,0.0269709439179383,-2.51434619124433
"341",-6.1,"V21",0.00496309189846278,0.00498797176074881,-0.804274540595885
"342",-6.1,"V22",0.00485792500307604,0.00488175655009039,-0.782643536151985
"343",-6.1,"V23",0.0151587471079905,0.0153957770592486,-1.94185349857722
"344",-6.1,"V24",0.00485697077769407,0.00488079291719461,-0.782445153602013
"345",-6.1,"V25",0.00336472575959584,0.00337612397267471,-0.412354854780223
"346",-6.1,"V26",0.00329522504238546,0.00330615570795068,-0.391342451018105
"347",-6.1,"V27",0.00257532935698466,0.00258199606064183,-0.143392822902256
"348",-6.1,"V28",0.00205815821361899,0.00206241175586974,0.0818146842478843
"349",-6.1,"V29",0.0194907818486359,0.0198862445718056,-2.20235962327933
"350",-6.1,"V30",0.0104916030045069,0.0106040488566614,-1.56414128924564
"351",-6.1,"V31",0.00666171540264441,0.00670669516264911,-1.10208031258256
"352",-6.1,"V32",0.00620195884862716,0.00624090777852724,-1.02963083379668
"353",-6.1,"V33",0.00960902405708168,0.00970317567526676,-1.47444850039087
"354",-6.1,"V34",0.00217661703209164,0.002181375430862,0.0256159114508497
"355",-6.1,"V35",0.0131613044507746,0.0133392397683728,-1.7963837776056
"356",-6.1,"V36",0.0203777128220978,0.0208108023150958,-2.24874731404659
"357",-6.1,"V37",0.00529555721479188,0.00532390113812036,-0.869789175881536
"358",-6.1,"V38",0.000359903510354314,0.000360033134212044,1.82895439330989
"359",-6.1,"V39",3.51322205684673e-05,3.51334549281225e-05,4.15632161550674
"360",-6.1,"V40",0.0248759888621106,0.0255276497646155,-2.45786602396384
"361",-6.1,"V41",0.00055676855781045,0.000557078894705376,1.39224645174654
"362",-6.1,"V42",0.00465233342217191,0.00467418139387476,-0.738983905051686
"363",-6.1,"V43",0.00186680940335309,0.00187030745332304,0.179780389426151
"364",-6.1,"V44",0.000791147734521827,0.000791774641604916,1.04044166180745
"365",-6.1,"V45",0.0151619751629579,0.0153991076803076,-1.94207319130362
"366",-6.1,"V46",0.00578890783579774,0.00582281298687789,-0.95986802873198
"367",-6.1,"V47",0.0127042896995958,0.0128699246603591,-1.76009134835349
"368",-6.1,"V48",0.00605823662730679,0.00609539041157632,-1.00589157944051
"369",-6.1,"V49",0.00636230553957969,0.00640330789153346,-1.05548333291734
"370",-6.1,"V50",0.0131738535095619,0.0133521329642571,-1.79736293989902
"371",-6.1,"V51",0.0421569693526224,0.0441019514766732,-3.02385276908498
"372",-6.1,"V52",0.00267418960420148,0.00268137939968654,-0.181261065239454
"373",-6.1,"V53",0.0157846500962343,0.0160419957230114,-1.98362679877156
"374",-6.1,"V54",0.0278702952879369,0.0286936190628615,-2.57803281587365
"375",-6.1,"V55",0.00231868700415696,0.00232408839100617,-0.0378993865561951
"376",-6.1,"V56",0.00517016943216423,0.00519718011329425,-0.845571646040253
"377",-6.1,"V57",0.00836242891584898,0.00843355374461224,-1.33293228084376
"378",-6.1,"V58",0.00402704716018231,0.00404339621311857,-0.593381299498677
"379",-6.1,"V59",0.0136304941931049,0.0138215288529375,-1.83239009489464
"380",-6.1,"V60",0.0068187351759162,0.00686587542121586,-1.12569782557463
"381",-6.1,"V61",0.0235169483858714,0.0240976448743623,-2.39875157723556
"382",-6.1,"V62",0.000371603209007009,0.000371741400675985,1.79694029438603
"383",-6.1,"V63",0.0017020523454192,0.00170495923139994,0.272507665406372
"384",-6.1,"V64",0.0101607519018233,0.0102661456482953,-1.53141557848288
"385",-6.1,"V65",0.00436881802414133,0.0043880732106433,-0.67553267663813
"386",-6.1,"V66",0.000151287784145678,0.000151310679067277,2.69602403546251
"387",-6.1,"V67",0.0620565271732288,0.0664755222288236,-3.45786660897764
"388",-6.1,"V68",0.0459626460162097,0.0482950587122272,-3.11907420020112
"389",-6.1,"V69",0.000830067945144438,0.000830758104172086,0.992340792154458
"390",-6.1,"V70",0.000587597221677092,0.000587942898529023,1.33829261032173
"391",-6.1,"V71",0.0194057703510264,0.0197977200710376,-2.19780782468689
"392",-6.1,"V72",0.0115164304089847,0.0116522042734141,-1.65946071436295
"393",-6.1,"V73",0.0459729836075088,0.0483065017154983,-3.11932313531716
"394",-6.1,"V74",0.027858600682826,0.0286812126414076,-2.57758757390686
"395",-6.1,"V75",0.00251917786401448,0.00252555629863204,-0.121234826664866
"396",-6.1,"V76",0.00187951478645697,0.00188306070407219,0.172971955978446
"397",-6.1,"V77",0.00858392298096041,0.00865889952189061,-1.35952896513552
"398",-6.1,"V78",0.000260909053616997,0.000260977162696446,2.15081664249403
"399",-6.1,"V79",0.0203702566901758,0.020803022432503,-2.24836546028706
"400",-6.1,"V80",0.0698966748034462,0.0756141788460012,-3.59651427662188
"401",-6,"V1",0.00491749828217315,0.00494192086399918,-0.694952988041792
"402",-6,"V2",0.00790145732885753,0.00796489691167108,-1.17528550777643
"403",-6,"V3",0.0155391701459032,0.0157884451460325,-1.86743748390225
"404",-6,"V4",0.0057183174846521,0.00575139604107337,-0.847455335120406
"405",-6,"V5",0.00610822889977351,0.00614600224334876,-0.914211516394273
"406",-6,"V6",0.00513547798272673,0.0051621255226382,-0.738768634009751
"407",-6,"V7",0.0188459722305891,0.0192151959874242,-2.06734835207458
"408",-6,"V8",0.0426847808655256,0.0446811895666133,-2.93750748030197
"409",-6,"V9",0.0119591466857024,0.0121056945256508,-1.59810025008907
"410",-6,"V10",0.00852507610905718,0.00859901924096364,-1.25252908015508
"411",-6,"V11",0.030623964742842,0.0316240449626411,-2.57829735260356
"412",-6,"V12",0.0135636119790045,0.0137527501147225,-1.72733172875683
"413",-6,"V13",0.00218723918237483,0.00219204424032638,0.120726277183337
"414",-6,"V14",0.00289780968385852,0.00290625600784163,-0.162020865953684
"415",-6,"V15",0.00283768777124852,0.00284578627074729,-0.140933962963528
"416",-6,"V16",0.00301016579959801,0.00301928186256362,-0.200287579363619
"417",-6,"V17",0.00853745414803463,0.00861161404448581,-1.2540053917575
"418",-6,"V18",0.00254124189953039,0.00254773284216544,-0.0299995870535039
"419",-6,"V19",0.00358058663451731,0.00359349987587522,-0.374971316409024
"420",-6,"V20",0.0288397231683204,0.0297231912674413,-2.51434619124433
"421",-6,"V21",0.0054793145395323,0.00550967101421721,-0.804274540595885
"422",-6,"V22",0.00536332875400378,0.00539240680515607,-0.782643536151985
"423",-6,"V23",0.0166988854075894,0.0169874591768754,-1.94185349857722
"424",-6,"V24",0.00536227634024798,0.00539134291871516,-0.782445153602013
"425",-6,"V25",0.00371595773765992,0.00372986966538065,-0.412354854780223
"426",-6,"V26",0.00363925562379899,0.00365259708929572,-0.391342451018105
"427",-6,"V27",0.00284463397423298,0.00285277228393698,-0.143392822902256
"428",-6,"V28",0.00227363016866176,0.00227882320385619,0.0818146842478843
"429",-6,"V29",0.0214508245883888,0.0219318297443227,-2.20235962327933
"430",-6,"V30",0.0115691953331336,0.011706231181611,-1.56414128924564
"431",-6,"V31",0.00735195907158416,0.00740682005490998,-1.10208031258256
"432",-6,"V32",0.00684523570040224,0.00689274564289995,-1.02963083379668
"433",-6,"V33",0.010597972611921,0.0107127353097375,-1.47444850039087
"434",-6,"V34",0.00240443048141506,0.00241023973700489,0.0256159114508497
"435",-6,"V35",0.0145047649036313,0.0147214870856441,-1.7963837776056
"436",-6,"V36",0.022422595899373,0.0229492646472211,-2.24874731404659
"437",-6,"V37",0.00584594747523281,0.0058805280858007,-0.869789175881536
"438",-6,"V38",0.000397724772677508,0.000397883083625744,1.82895439330989
"439",-6,"V39",3.88268215275727e-05,3.88283291667186e-05,4.15632161550674
"440",-6,"V40",0.0273451914451354,0.0281368751906284,-2.45786602396384
"441",-6,"V41",0.000615252322659174,0.000615631324586987,1.39224645174654
"442",-6,"V42",0.00513657220409462,0.00516323116010733,-0.738983905051686
"443",-6,"V43",0.00206233205290019,0.00206660290044833,0.179780389426151
"444",-6,"V44",0.00087420786854182,0.000874973447074907,1.04044166180745
"445",-6,"V45",0.0167024297526945,0.0169911281898587,-1.94207319130362
"446",-6,"V46",0.00638990395710968,0.00643126512825965,-0.95986802873198
"447",-6,"V47",0.0140024799735281,0.0142042404194208,-1.76009134835349
"448",-6,"V48",0.00668681092266774,0.00673213253108381,-1.00589157944051
"449",-6,"V49",0.0070219740883093,0.00707198708970627,-1.05548333291734
"450",-6,"V50",0.0145185556080741,0.0147356963551451,-1.79736293989902
"451",-6,"V51",0.046161447442245,0.0485151690723652,-3.02385276908498
"452",-6,"V52",0.00295377040006785,0.00296254708530047,-0.181261065239454
"453",-6,"V53",0.0173860210492668,0.0176992857658894,-1.98362679877156
"454",-6,"V54",0.030616376837054,0.0316159448028295,-2.57803281587365
"455",-6,"V55",0.00256129319617862,0.00256788724106143,-0.0378993865561951
"456",-6,"V56",0.00570767964631359,0.00574063453113364,-0.845571646040253
"457",-6,"V57",0.00922554052893653,0.00931225869086207,-1.33293228084376
"458",-6,"V58",0.00444679262641292,0.00446674443223583,-0.593381299498677
"459",-6,"V59",0.0150203262631741,0.0152529796514208,-1.83239009489464
"460",-6,"V60",0.00752499643514478,0.00758249059882606,-1.12569782557463
"461",-6,"V61",0.0258590086786809,0.0265646915139101,-2.39875157723556
"462",-6,"V62",0.000410652948939348,0.000410821723427788,1.79694029438603
"463",-6,"V63",0.00188038434130598,0.00188393354691517,0.272507665406372
"464",-6,"V64",0.0112051580278269,0.0113336087143161,-1.53141557848288
"465",-6,"V65",0.00482383721981442,0.00484733386541724,-0.67553267663813
"466",-6,"V66",0.000167193537992509,0.000167221501022913,2.69602403546251
"467",-6,"V67",0.0676340643344707,0.0729567519963238,-3.45786660897764
"468",-6,"V68",0.0502844690868697,0.0531045637812685,-3.11907420020112
"469",-6,"V69",0.000917206670383765,0.000918049485241116,0.992340792154458
"470",-6,"V70",0.000649315058320218,0.000649737216771076,1.33829261032173
"471",-6,"V71",0.0213576609741971,0.0218344020887712,-2.19780782468689
"472",-6,"V72",0.0126964864973411,0.0128619153641764,-1.65946071436295
"473",-6,"V73",0.0502956582648205,0.0531170827440598,-3.11932313531716
"474",-6,"V74",0.0306036095760667,0.0316023159494346,-2.57758757390686
"475",-6,"V75",0.00278264369222574,0.00279043019288712,-0.121234826664866
"476",-6,"V76",0.00207636258157243,0.00208069186018949,0.172971955978446
"477",-6,"V77",0.00946944721129665,0.00956085720172849,-1.35952896513552
"478",-6,"V78",0.000288333270216564,0.000288416454267656,2.15081664249403
"479",-6,"V79",0.0224144281517082,0.0229407040542111,-2.24836546028706
"480",-6,"V80",0.0760336617278922,0.0829072785673337,-3.59651427662188
"481",-5.9,"V1",0.00542903118623335,0.00545883001132591,-0.694952988041792
"482",-5.9,"V2",0.0087178492750921,0.00879520490440252,-1.17528550777643
"483",-5.9,"V3",0.0171165481900213,0.0174200047557102,-1.86743748390225
"484",-5.9,"V4",0.00631207977829508,0.00635243318567353,-0.847455335120406
"485",-5.9,"V5",0.0067419184322614,0.00678799531262563,-0.914211516394273
"486",-5.9,"V6",0.00566942332389855,0.00570193539110286,-0.738768634009751
"487",-5.9,"V7",0.0207440930767014,0.0211932467860352,-2.06734835207458
"488",-5.9,"V8",0.0467337277871862,0.0491493903599399,-2.93750748030197
"489",-5.9,"V9",0.0131833106401903,0.0133618496667059,-1.59810025008907
"490",-5.9,"V10",0.0094046479963939,0.00949479920840176,-1.25252908015508
"491",-5.9,"V11",0.0336207031244953,0.0348341189688299,-2.57829735260356
"492",-5.9,"V12",0.014946840332324,0.0151771873481241,-1.72733172875683
"493",-5.9,"V13",0.00241615896760193,0.00242202517354321,0.120726277183337
"494",-5.9,"V14",0.00320061812871685,0.00321092818854887,-0.162020865953684
"495",-5.9,"V15",0.00313425359230053,0.00314413920363234,-0.140933962963528
"496",-5.9,"V16",0.00332463595098046,0.00333576326755765,-0.200287579363619
"497",-5.9,"V17",0.00941827820691157,0.00950869345819346,-1.2540053917575
"498",-5.9,"V18",0.0028070021837401,0.002814925992081,-0.0299995870535039
"499",-5.9,"V19",0.00395417084046955,0.00396993119415588,-0.374971316409024
"500",-5.9,"V20",0.0316744839649597,0.0327468394595492,-2.51434619124433
"501",-5.9,"V21",0.00604856727792902,0.00608560182753228,-0.804274540595885
"502",-5.9,"V22",0.00592067753764766,0.00595615329977812,-0.782643536151985
"503",-5.9,"V23",0.0183893554649504,0.0187405642119319,-1.94185349857722
"504",-5.9,"V24",0.00591951708260857,0.00595497885578137,-0.782445153602013
"505",-5.9,"V25",0.00410354836385109,0.00412052710749468,-0.412354854780223
"506",-5.9,"V26",0.00401891118053948,0.00403519397092245,-0.391342451018105
"507",-5.9,"V27",0.00314192112516855,0.00315185531710853,-0.143392822902256
"508",-5.9,"V28",0.00251154593262608,0.0025178856809283,0.0818146842478843
"509",-5.9,"V29",0.023597840835834,0.0241826409596157,-2.20235962327933
"510",-5.9,"V30",0.0127545133273871,0.0129214779189982,-1.56414128924564
"511",-5.9,"V31",0.00811252740730229,0.0081794304904504,-1.10208031258256
"512",-5.9,"V32",0.0075541991282153,0.00761214386239713,-1.02963083379668
"513",-5.9,"V33",0.0116862232944784,0.0118260794496273,-1.47444850039087
"514",-5.9,"V34",0.0026559599686159,0.0026630518135777,0.0256159114508497
"515",-5.9,"V35",0.0159807210211046,0.0162446083205942,-1.7963837776056
"516",-5.9,"V36",0.0246616109378152,0.025301791595771,-2.24874731404659
"517",-5.9,"V37",0.00645278708174177,0.0064949717396405,-0.869789175881536
"518",-5.9,"V38",0.000439517067567438,0.000439710412814575,1.82895439330989
"519",-5.9,"V39",4.29099235379975e-05,4.29117649575693e-05,4.15632161550674
"520",-5.9,"V40",0.0300430416590509,0.0310043088247515,-2.45786602396384
"521",-5.9,"V41",0.00067987093288883,0.000680333786950497,1.39224645174654
"522",-5.9,"V42",0.00567062999547135,0.00570315598364514,-0.738983905051686
"523",-5.9,"V43",0.00227823896601589,0.00228345312418625,0.179780389426151
"524",-5.9,"V44",0.00096597132372144,0.000966906231381725,1.04044166180745
"525",-5.9,"V45",0.0183932444433837,0.0187446046467465,-1.94207319130362
"526",-5.9,"V46",0.00705239257267286,0.00710284295065452,-0.95986802873198
"527",-5.9,"V47",0.0154290012784254,0.0156746974175574,-1.76009134835349
"528",-5.9,"V48",0.00737961536917758,0.0074348930031458,-1.00589157944051
"529",-5.9,"V49",0.0077489504302005,0.00780994568175242,-1.05548333291734
"530",-5.9,"V50",0.0159958672866338,0.016260263454235,-1.79736293989902
"531",-5.9,"V51",0.0504996373538085,0.0533453653591049,-3.02385276908498
"532",-5.9,"V52",0.00326238787896463,0.00327310106957629,-0.181261065239454
"533",-5.9,"V53",0.0191431903252466,0.0195243922166772,-1.98362679877156
"534",-5.9,"V54",0.033612429775752,0.0348252261523117,-2.57803281587365
"535",-5.9,"V55",0.00282913843254496,0.00283718806868203,-0.0378993865561951
"536",-5.9,"V56",0.00630035161134877,0.00634055423941169,-0.845571646040253
"537",-5.9,"V57",0.0101758572978665,0.010281567937112,-1.33293228084376
"538",-5.9,"V58",0.00490985178790683,0.00493419809878488,-0.593381299498677
"539",-5.9,"V59",0.0165468971172234,0.0168301511033862,-1.83239009489464
"540",-5.9,"V60",0.0083031591054822,0.00837327076885069,-1.12569782557463
"541",-5.9,"V61",0.0284196032819479,0.0292767302139694,-2.39875157723556
"542",-5.9,"V62",0.000453802481310775,0.000454008605124302,1.79694029438603
"543",-5.9,"V63",0.00207732282646319,0.00208165611865954,0.272507665406372
"544",-5.9,"V64",0.0123541457879289,0.012510662463197,-1.53141557848288
"545",-5.9,"V65",0.00532573312266315,0.00535440275148829,-0.67553267663813
"546",-5.9,"V66",0.000184770936748994,0.000184805089670162,2.69602403546251
"547",-5.9,"V67",0.0736132092860531,0.080015725634939,-3.45786660897764
"548",-5.9,"V68",0.0549573389880904,0.0583636552412046,-3.11907420020112
"549",-5.9,"V69",0.00101347442234307,0.0010145036399786,0.992340792154458
"550",-5.9,"V70",0.000717506056431497,0.00071802161146603,1.33829261032173
"551",-5.9,"V71",0.0234958328537413,0.024075460659719,-2.19780782468689
"552",-5.9,"V72",0.0139939029430701,0.0141954126843491,-1.65946071436295
"553",-5.9,"V73",0.0549694240166757,0.058377337556909,-3.11932313531716
"554",-5.9,"V74",0.0335985091361836,0.0348102635871935,-2.57758757390686
"555",-5.9,"V75",0.00307349265059024,0.00308299752432524,-0.121234826664866
"556",-5.9,"V76",0.00229373156406258,0.00229901704342855,0.172971955978446
"557",-5.9,"V77",0.0104443430302567,0.0105557672525467,-1.35952896513552
"558",-5.9,"V78",0.00031863821414308,0.000318739809209055,2.15081664249403
"559",-5.9,"V79",0.0246526718812089,0.025292376173722,-2.24836546028706
"560",-5.9,"V80",0.0825837458722047,0.0908346860646722,-3.59651427662188
"561",-5.8,"V1",0.00599312397822337,0.00602947859029419,-0.694952988041792
"562",-5.8,"V2",0.00961691397202043,0.00971122180088644,-1.17528550777643
"563",-5.8,"V3",0.0188475875184876,0.0192168758353592,-1.86743748390225
"564",-5.8,"V4",0.00696661522495376,0.00701583719652186,-0.847455335120406
"565",-5.8,"V5",0.00744034507116855,0.00749654323159168,-0.914211516394273
"566",-5.8,"V6",0.00625817375382334,0.00629783649838371,-0.738768634009751
"567",-5.8,"V7",0.0228239099704058,0.0233700701491836,-2.06734835207458
"568",-5.8,"V8",0.0511189147887273,0.0540391438575884,-2.93750748030197
"569",-5.8,"V9",0.0145289484086117,0.0147464048650559,-1.59810025008907
"570",-5.8,"V10",0.0103730166104195,0.0104829079699254,-1.25252908015508
"571",-5.8,"V11",0.0368858628817067,0.0383571324949412,-2.57829735260356
"572",-5.8,"V12",0.0164662046292367,0.0167466550857995,-1.72733172875683
"573",-5.8,"V13",0.00266890876709629,0.00267607011837475,0.120726277183337
"574",-5.8,"V14",0.00353484226654967,0.00354742650133202,-0.162020865953684
"575",-5.8,"V15",0.0034615962356334,0.00347366256726461,-0.140933962963528
"576",-5.8,"V16",0.00367171425390217,0.00368529565798896,-0.200287579363619
"577",-5.8,"V17",0.0103880199539869,0.0104982328468945,-1.2540053917575
"578",-5.8,"V18",0.00310038118323972,0.00311005361673871,-0.0299995870535039
"579",-5.8,"V19",0.00436638773698159,0.00438562141215232,-0.374971316409024
"580",-5.8,"V20",0.0347658380101494,0.0360666405723225,-2.51434619124433
"581",-5.8,"V21",0.006676152063868,0.00672132831822943,-0.804274540595885
"582",-5.8,"V22",0.00653517061936194,0.00657844657875143,-0.782643536151985
"583",-5.8,"V23",0.0202435038546369,0.0206707852160865,-1.94185349857722
"584",-5.8,"V24",0.00653389133653353,0.00657715024183723,-0.782445153602013
"585",-5.8,"V25",0.00453119418851138,0.00455191411058149,-0.412354854780223
"586",-5.8,"V26",0.00443781627399581,0.00445768724961116,-0.391342451018105
"587",-5.8,"V27",0.00347005893844453,0.00348218454766856,-0.143392822902256
"588",-5.8,"V28",0.00277421805740647,0.0027819573440707,0.0818146842478843
"589",-5.8,"V29",0.025947494508505,0.0266581515527123,-2.20235962327933
"590",-5.8,"V30",0.0140576834791692,0.0142610613499976,-1.56414128924564
"591",-5.8,"V31",0.00895032391799069,0.00903189911969911,-1.10208031258256
"592",-5.8,"V32",0.00833532971107784,0.00840599038543792,-1.02963083379668
"593",-5.8,"V33",0.0128832069721231,0.0130536035374357,-1.47444850039087
"594",-5.8,"V34",0.00293364620130113,0.00294230335030635,0.0256159114508497
"595",-5.8,"V35",0.017601234723267,0.0179224488977598,-1.7963837776056
"596",-5.8,"V36",0.0271108187665402,0.0278885923497932,-2.24874731404659
"597",-5.8,"V37",0.00712169988827076,0.00717315402696533,-0.869789175881536
"598",-5.8,"V38",0.000485696558205036,0.000485932688783064,1.82895439330989
"599",-5.8,"V39",4.74223715491409e-05,4.74246206437841e-05,4.15632161550674
"600",-5.8,"V40",0.0329872189400545,0.0341536937358572,-2.45786602396384
"601",-5.8,"V41",0.000751266071055929,0.000751831321391755,1.39224645174654
"602",-5.8,"V42",0.00625950412804372,0.00629918384515883,-0.738983905051686
"603",-5.8,"V43",0.00251663455054754,0.00252300007995097,0.179780389426151
"604",-5.8,"V44",0.00106734632585072,0.00106848799244071,1.04044166180745
"605",-5.8,"V45",0.0202477677739491,0.0206752330350007,-1.94207319130362
"606",-5.8,"V46",0.00778246762991851,0.00784399590162319,-0.95986802873198
"607",-5.8,"V47",0.0169956020615691,0.0172947090217149,-1.76009134835349
"608",-5.8,"V48",0.0081429967332633,0.0082104075249897,-1.00589157944051
"609",-5.8,"V49",0.00854986353337357,0.00862424106736153,-1.05548333291734
"610",-5.8,"V50",0.0176178589696601,0.0179396915008041,-1.79736293989902
"611",-5.8,"V51",0.0551897226560827,0.0586268275666075,-3.02385276908498
"612",-5.8,"V52",0.00360301521216158,0.00361609132865879,-0.181261065239454
"613",-5.8,"V53",0.0210698786824682,0.0215335734688046,-1.98362679877156
"614",-5.8,"V54",0.0368768547732361,0.0383473760209265,-2.57803281587365
"615",-5.8,"V55",0.00312481641473421,0.00313464239769564,-0.0378993865561951
"616",-5.8,"V56",0.0069536882608313,0.0070027264384024,-0.845571646040253
"617",-5.8,"V57",0.0112217797177326,0.0113506162059882,-1.33293228084376
"618",-5.8,"V58",0.00542059808147821,0.00545030389401533,-0.593381299498677
"619",-5.8,"V59",0.0182225828957878,0.0185673285866317,-1.83239009489464
"620",-5.8,"V60",0.00916026935115714,0.00924575330534035,-1.12569782557463
"621",-5.8,"V61",0.0312159912465347,0.0322564711794878,-2.39875157723556
"622",-5.8,"V62",0.000501481413779507,0.000501733149933249,1.79694029438603
"623",-5.8,"V63",0.00229479186914933,0.00230008224749457,0.272507665406372
"624",-5.8,"V64",0.0136175841807109,0.0138082520041202,-1.53141557848288
"625",-5.8,"V65",0.00587922199760488,0.00591419975636305,-0.67553267663813
"626",-5.8,"V66",0.000204195528185481,0.000204237241036107,2.69602403546251
"627",-5.8,"V67",0.0800030094344862,0.0876930869297559,-3.45786660897764
"628",-5.8,"V68",0.0599984323639447,0.0641083074477614,-3.11907420020112
"629",-5.8,"V69",0.00111982348304088,0.00112108030408909,0.992340792154458
"630",-5.8,"V70",0.000792847078908252,0.000793476684156552,1.33829261032173
"631",-5.8,"V71",0.0258359104964483,0.0265402979095774,-2.19780782468689
"632",-5.8,"V72",0.0154195790405615,0.0156649703361954,-1.65946071436295
"633",-5.8,"V73",0.0600114542634507,0.0641232447852383,-3.11932313531716
"634",-5.8,"V74",0.0368616977566811,0.0383309602720593,-2.57758757390686
"635",-5.8,"V75",0.00339453303928392,0.00340613479351552,-0.121234826664866
"636",-5.8,"V76",0.00253374000570633,0.00254019258407049,0.172971955978446
"637",-5.8,"V77",0.0115171981218393,0.011652990304885,-1.35952896513552
"638",-5.8,"V78",0.000352126079210416,0.000352250159385202,2.15081664249403
"639",-5.8,"V79",0.0271010454792867,0.0278782418478118,-2.24836546028706
"640",-5.8,"V80",0.0895500091967873,0.0994379064324575,-3.59651427662188
"641",-5.7,"V1",0.0066150341415274,0.00665938150353705,-0.694952988041792
"642",-5.7,"V2",0.0106066566140833,0.0107216095248875,-1.17528550777643
"643",-5.7,"V3",0.0207458637368913,0.0211950958238745,-1.86743748390225
"644",-5.7,"V4",0.00768795106391493,0.00774798229353588,-0.847455335120406
"645",-5.7,"V5",0.00820990221494506,0.00827843469596034,-0.914211516394273
"646",-5.7,"V6",0.00690719864711909,0.00695557872248376,-0.738768634009751
"647",-5.7,"V7",0.0251007819007707,0.0257645963245371,-2.06734835207458
"648",-5.7,"V8",0.0558584083726163,0.0593849847912764,-2.93750748030197
"649",-5.7,"V9",0.0160072815896554,0.0162720615776419,-1.59810025008907
"650",-5.7,"V10",0.0114387200763885,0.0115726462168489,-1.25252908015508
"651",-5.7,"V11",0.0404382645155903,0.0422208660451967,-2.57829735260356
"652",-5.7,"V12",0.0181340366883463,0.018475376214618,-1.72733172875683
"653",-5.7,"V13",0.00294794075397816,0.00295668272672467,0.120726277183337
"654",-5.7,"V14",0.0039036915035153,0.00391905046002351,-0.162020865953684
"655",-5.7,"V15",0.00382286178047716,0.00383758886880313,-0.140933962963528
"656",-5.7,"V16",0.00405472809268469,0.00407130360573476,-0.200287579363619
"657",-5.7,"V17",0.0114552279493046,0.0115895455145381,-1.2540053917575
"658",-5.7,"V18",0.00342421072136881,0.00343601693373774,-0.0299995870535039
"659",-5.7,"V19",0.00482115629966437,0.00484462670760037,-0.374971316409024
"660",-5.7,"V20",0.038132360044691,0.0397091789365021,-2.51434619124433
"661",-5.7,"V21",0.00736786890377493,0.0074229693781641,-0.804274540595885
"662",-5.7,"V22",0.00721249696619382,0.00726528127824585,-0.782643536151985
"663",-5.7,"V23",0.0222755738068828,0.0227951947086899,-1.94185349857722
"664",-5.7,"V24",0.00721108705924616,0.00726385058456099,-0.782445153602013
"665",-5.7,"V25",0.00500295277769157,0.00502823593430259,-0.412354854780223
"666",-5.7,"V26",0.00489995002887813,0.0049241977523827,-0.391342451018105
"667",-5.7,"V27",0.00383220081679399,0.00384700022754471,-0.143392822902256
"668",-5.7,"V28",0.00306419180648553,0.00307363906357869,0.0818146842478843
"669",-5.7,"V29",0.0285162920702955,0.029379443787562,-2.20235962327933
"670",-5.7,"V30",0.0154896438609376,0.0157373066825585,-1.56414128924564
"671",-5.7,"V31",0.00987287244598829,0.00997231960427816,-1.10208031258256
"672",-5.7,"V32",0.00919569760000064,0.00928185034584328,-1.02963083379668
"673",-5.7,"V33",0.0141991320895639,0.0144066846522327,-1.47444850039087
"674",-5.7,"V34",0.00324017484517985,0.00325074216983459,0.0256159114508497
"675",-5.7,"V35",0.0193792472083842,0.0197701042296348,-1.7963837776056
"676",-5.7,"V36",0.0297870969974517,0.0307315235363148,-2.24874731404659
"677",-5.7,"V37",0.00785883360984825,0.00792158512067231,-0.869789175881536
"678",-5.7,"V38",0.000536722850233802,0.00053701123129634,1.82895439330989
"679",-5.7,"V39",5.24093030981771e-05,5.2412050121175e-05,4.15632161550674
"680",-5.7,"V40",0.0361960176249367,0.0376105728121984,-2.45786602396384
"681",-5.7,"V41",0.000830146127656963,0.000830836416808458,1.39224645174654
"682",-5.7,"V42",0.00690866503561556,0.00695706580016336,-0.738983905051686
"683",-5.7,"V43",0.00277983588299575,0.00278760663374022,0.179780389426151
"684",-5.7,"V44",0.0011793350510814,0.0011807291724601,1.04044166180745
"685",-5.7,"V45",0.0222802449447628,0.0228000890033222,-1.94207319130362
"686",-5.7,"V46",0.00858678354143449,0.00866181050261775,-0.95986802873198
"687",-5.7,"V47",0.0187149021303713,0.0190789068156517,-1.76009134835349
"688",-5.7,"V48",0.00898388138395135,0.00906607510170103,-1.00589157944051
"689",-5.7,"V49",0.00943194286170884,0.00952262321459601,-1.05548333291734
"690",-5.7,"V50",0.0193974805561878,0.0197890885831392,-1.79736293989902
"691",-5.7,"V51",0.060248817138325,0.0643956119806929,-3.02385276908498
"692",-5.7,"V52",0.00397892062651304,0.00399487969025264,-0.181261065239454
"693",-5.7,"V53",0.0231807033343919,0.0237445048447125,-1.98362679877156
"694",-5.7,"V54",0.0404284714884114,0.0422101699342933,-2.57803281587365
"695",-5.7,"V55",0.0034511803273457,0.00346317390081298,-0.0378993865561951
"696",-5.7,"V56",0.00767370676521292,0.00773351400406397,-0.845571646040253
"697",-5.7,"V57",0.0123724276737142,0.0125294138860419,-1.33293228084376
"698",-5.7,"V58",0.00598382537355429,0.00602006657512321,-0.593381299498677
"699",-5.7,"V59",0.0200606456029898,0.0204800792490367,-1.83239009489464
"700",-5.7,"V60",0.0101040037844103,0.0102082113636554,-1.12569782557463
"701",-5.7,"V61",0.0342661196530856,0.0355283858545127,-2.39875157723556
"702",-5.7,"V62",0.000554164188942284,0.00055447162772824,1.79694029438603
"703",-5.7,"V63",0.00253491068976349,0.0025413692474152,0.272507665406372
"704",-5.7,"V64",0.0150061417290146,0.0152383490095515,-1.53141557848288
"705",-5.7,"V65",0.00648946973802625,0.00653213857235469,-0.67553267663813
"706",-5.7,"V66",0.000225661264921709,0.000225712210923869,2.69602403546251
"707",-5.7,"V67",0.0868083892138557,0.0960301857983144,-3.45786660897764
"708",-5.7,"V68",0.0654233371007106,0.0703761378842076,-3.11907420020112
"709",-5.7,"V69",0.00123730456073507,0.00123883928350542,0.992340792154458
"710",-5.7,"V70",0.000876085308175312,0.000876854181430805,1.33829261032173
"711",-5.7,"V71",0.0283943631712048,0.0292499210527999,-2.19780782468689
"712",-5.7,"V72",0.0169852578211486,0.0172839942793989,-1.65946071436295
"713",-5.7,"V73",0.0654373321832059,0.0703924257921026,-3.11932313531716
"714",-5.7,"V74",0.0404119936754898,0.0421921731506656,-2.57758757390686
"715",-5.7,"V75",0.00374885283884958,0.00376301310648919,-0.121234826664866
"716",-5.7,"V76",0.00279872018777512,0.00280659717548054,0.172971955978446
"717",-5.7,"V77",0.0126973307788153,0.0128627819379999,-1.35952896513552
"718",-5.7,"V78",0.000389130669867853,0.000389282210507271,2.15081664249403
"719",-5.7,"V79",0.0297764235659051,0.0307201512592993,-2.24836546028706
"720",-5.7,"V80",0.0969300798268141,0.108758488688654,-3.59651427662188
"721",-5.6,"V1",0.00730051360510376,0.00735460380219096,-0.694952988041792
"722",-5.6,"V2",0.0116957772046557,0.0118358649026495,-1.17528550777643
"723",-5.6,"V3",0.0228258493002766,0.0233721045724207,-1.86743748390225
"724",-5.6,"V4",0.00848266988525877,0.00855587284540552,-0.847455335120406
"725",-5.6,"V5",0.00905756635152908,0.00914112654606017,-0.914211516394273
"726",-5.6,"V6",0.00762247892946411,0.00768148412787084,-0.738768634009751
"727",-5.6,"V7",0.0275909260880352,0.0283973347064662,-2.06734835207458
"728",-5.6,"V8",0.0609691358069191,0.0652232018689579,-2.93750748030197
"729",-5.6,"V9",0.0176303870130832,0.0179526859457499,-1.59810025008907
"730",-5.6,"V10",0.0126110241850899,0.0127742044853227,-1.25252908015508
"731",-5.6,"V11",0.044296927710588,0.0464549941963731,-2.57829735260356
"732",-5.6,"V12",0.0199635533481115,0.0203788509126307,-1.72733172875683
"733",-5.6,"V13",0.00325595315158649,0.00326662398383827,0.120726277183337
"734",-5.6,"V14",0.00431069211340606,0.00432943613061513,-0.162020865953684
"735",-5.6,"V15",0.00422150735203641,0.00423948054734775,-0.140933962963528
"736",-5.6,"V16",0.00447733251487314,0.00449756056591724,-0.200287579363619
"737",-5.6,"V17",0.0126291790397753,0.0127928356846292,-1.2540053917575
"738",-5.6,"V18",0.00378160450309431,0.00379601422710671,-0.0299995870535039
"739",-5.6,"V19",0.00532277629570581,0.00535141392672091,-0.374971316409024
"740",-5.6,"V20",0.0417929705906967,0.0437029154056501,-2.51434619124433
"741",-5.6,"V21",0.00813005553397635,0.00819725044889832,-0.804274540595885
"742",-5.6,"V22",0.00795887455378078,0.00802324704695729,-0.782643536151985
"743",-5.6,"V23",0.0245006999948482,0.0251323342180984,-1.94185349857722
"744",-5.6,"V24",0.00795732113691605,0.00802166829921874,-0.782445153602013
"745",-5.6,"V25",0.0055232746872791,0.0055541229692365,-0.412354854780223
"746",-5.6,"V26",0.00540967766736278,0.00543926325208829,-0.391342451018105
"747",-5.6,"V27",0.00423181188313345,0.00424987330625265,-0.143392822902256
"748",-5.6,"V28",0.00338426733908605,0.00339579878849801,0.0818146842478843
"749",-5.6,"V29",0.0313215192413904,0.0323692901887114,-2.20235962327933
"750",-5.6,"V30",0.017062177727378,0.0173636749346129,-1.56414128924564
"751",-5.6,"V31",0.0108883601473595,0.0110095707964822,-1.10208031258256
"752",-5.6,"V32",0.0101430050813236,0.010248027141619,-1.02963083379668
"753",-5.6,"V33",0.0156450223734454,0.0158977611841125,-1.47444850039087
"754",-5.6,"V34",0.00357849972980262,0.00359139786845214,0.0256159114508497
"755",-5.6,"V35",0.0213285936894865,0.0218040084750673,-1.7963837776056
"756",-5.6,"V36",0.0327080626512175,0.0338541672944158,-2.24874731404659
"757",-5.6,"V37",0.00867090052933452,0.00874741784834811,-0.869789175881536
"758",-5.6,"V38",0.000593103488697994,0.000593455678340148,1.82895439330989
"759",-5.6,"V39",5.79205990763909e-05,5.79239542608681e-05,4.15632161550674
"760",-5.6,"V40",0.0396881887416334,0.0414023427247293,-2.45786602396384
"761",-5.6,"V41",0.000917293045217477,0.000918136018966801,1.39224645174654
"762",-5.6,"V42",0.00762409478791913,0.00768312520076984,-0.738983905051686
"763",-5.6,"V43",0.00307039318504619,0.00307987883870731,0.179780389426151
"764",-5.6,"V44",0.00130304316147471,0.00130474552235281,1.04044166180745
"765",-5.6,"V45",0.0245058125689117,0.0251377174052583,-1.94207319130362
"766",-5.6,"V46",0.00947259707462914,0.00956406848052939,-0.95986802873198
"767",-5.6,"V47",0.0206004112754888,0.0210432287517889,-1.76009134835349
"768",-5.6,"V48",0.00990981765422201,0.0100100181169231,-1.00589157944051
"769",-5.6,"V49",0.0104030611229671,0.010513596841513,-1.05548333291734
"770",-5.6,"V50",0.021348576046046,0.0218249024113092,-1.79736293989902
"771",-5.6,"V51",0.065692417619015,0.0706894103554107,-3.02385276908498
"772",-5.6,"V52",0.00439369460708196,0.00441317068255532,-0.181261065239454
"773",-5.6,"V53",0.0254911655419162,0.0261763677716319,-1.98362679877156
"774",-5.6,"V54",0.044286299418643,0.0464432774378083,-2.57803281587365
"775",-5.6,"V55",0.00381136723337876,0.00382600555186163,-0.0378993865561951
"776",-5.6,"V56",0.00846697887145887,0.00853990891574814,-0.845571646040253
"777",-5.6,"V57",0.01363768200598,0.013828921063768,-1.33293228084376
"778",-5.6,"V58",0.0066047836823948,0.0066489927874828,-0.593381299498677
"779",-5.6,"V59",0.0220752435840157,0.022585341222136,-1.83239009489464
"780",-5.6,"V60",0.0111427125077845,0.0112697190758327,-1.12569782557463
"781",-5.6,"V61",0.0375884913348665,0.0391187694588404,-2.39875157723556
"782",-5.6,"V62",0.000612374722981041,0.000612750185771204,1.79694029438603
"783",-5.6,"V63",0.00280001260991205,0.00280789689488435,0.272507665406372
"784",-5.6,"V64",0.0165313217493941,0.0168140334709565,-1.53141557848288
"785",-5.6,"V65",0.00716212921121365,0.00721417351065549,-0.67553267663813
"786",-5.6,"V66",0.000249382427327211,0.000249444649960605,2.69602403546251
"787",-5.6,"V67",0.0940292046017627,0.10506861938023,-3.45786660897764
"788",-5.6,"V68",0.0712454173274795,0.0772062173204052,-3.11907420020112
"789",-5.6,"V69",0.00136707676162715,0.0013689507878868,0.992340792154458
"790",-5.6,"V70",0.00096804545066636,0.000968984381397753,1.33829261032173
"791",-5.6,"V71",0.0311884429328616,0.0322270240093615,-2.19780782468689
"792",-5.6,"V72",0.0187035535281326,0.0190671081409929,-1.65946071436295
"793",-5.6,"V73",0.0712604154979732,0.0772239546733675,-3.11932313531716
"794",-5.6,"V74",0.0442684160707131,0.0464235633002009,-2.57758757390686
"795",-5.6,"V75",0.00413984571833569,0.00415712742677816,-0.121234826664866
"796",-5.6,"V76",0.00309123899315554,0.00310085429048637,0.172971955978446
"797",-5.6,"V77",0.0139948309516878,0.0141963678107046,-1.35952896513552
"798",-5.6,"V78",0.000430020687850462,0.000430205764850573,2.15081664249403
"799",-5.6,"V79",0.032696420527559,0.0338416798206418,-2.24836546028706
"800",-5.6,"V80",0.104715094419454,0.11883742893544,-3.59651427662188
"801",-5.5,"V1",0.00805584826052946,0.00812181209219031,-0.694952988041792
"802",-5.5,"V2",0.0128937129536971,0.013064391273032,-1.17528550777643
"803",-5.5,"V3",0.0251029039788714,0.025766833697675,-1.86743748390225
"804",-5.5,"V4",0.00935795137566759,0.00944720098206308,-0.847455335120406
"805",-5.5,"V5",0.00999093949386578,0.0100928041902893,-0.914211516394273
"806",-5.5,"V6",0.00841054731084614,0.00848250011911696,-0.738768634009751
"807",-5.5,"V7",0.0303113644975359,0.0312904572099432,-2.06734835207458
"808",-5.5,"V8",0.0664663256046198,0.0715916966311458,-2.93750748030197
"809",-5.5,"V9",0.0194112211305608,0.0198033956081747,-1.59810025008907
"810",-5.5,"V10",0.0138999635861536,0.0140987379993272,-1.25252908015508
"811",-5.5,"V11",0.0484807924092716,0.0510910921013837,-2.57829735260356
"812",-5.5,"V12",0.0219688675678808,0.0224739458080647,-1.72733172875683
"813",-5.5,"V13",0.00359591352950008,0.00360893796271883,0.120726277183337
"814",-5.5,"V14",0.0047597160832978,0.00478258924316665,-0.162020865953684
"815",-5.5,"V15",0.00466132953466936,0.00468326248214603,-0.140933962963528
"816",-5.5,"V16",0.00494353986688784,0.00496822310773608,-0.200287579363619
"817",-5.5,"V17",0.0139199195225572,0.0141192734040145,-1.2540053917575
"818",-5.5,"V18",0.00417598429595784,0.00419357032805418,-0.0299995870535039
"819",-5.5,"V19",0.00587596156770008,0.00591090031017693,-0.374971316409024
"820",-5.5,"V20",0.0457666961113311,0.0480782104294274,-2.51434619124433
"821",-5.5,"V21",0.00896962861661679,0.00905155934315953,-0.804274540595885
"822",-5.5,"V22",0.00878109126026001,0.00885958347969367,-0.782643536151985
"823",-5.5,"V23",0.0269348848550695,0.0277023024141124,-1.94185349857722
"824",-5.5,"V24",0.00877938027572261,0.00885784163413808,-0.782445153602013
"825",-5.5,"V25",0.00609703752452236,0.00613467172165483,-0.412354854780223
"826",-5.5,"V26",0.00597178413408706,0.00600787874105427,-0.391342451018105
"827",-5.5,"V27",0.00467269744405527,0.00469473800902868,-0.143392822902256
"828",-5.5,"V28",0.00373752373239471,0.00375159822161111,0.0818146842478843
"829",-5.5,"V29",0.0343811457052312,0.0356522269949292,-2.20235962327933
"830",-5.5,"V30",0.0187879406364759,0.0191548488717765,-1.56414128924564
"831",-5.5,"V31",0.0120056804496885,0.0121533852220439,-1.10208031258256
"832",-5.5,"V32",0.0111856296256331,0.0113136277996215,-1.02963083379668
"833",-5.5,"V33",0.0172327498652403,0.0175404160608272,-1.47444850039087
"834",-5.5,"V34",0.00395186794301428,0.00396760987110355,0.0256159114508497
"835",-5.5,"V35",0.0234640052289533,0.0240420241543937,-1.7963837776056
"836",-5.5,"V36",0.0358919598579168,0.0372818999195264,-2.24874731404659
"837",-5.5,"V37",0.00956521949717258,0.00965850623995992,-0.869789175881536
"838",-5.5,"V38",0.000655398912064607,0.00065582902377303,1.82895439330989
"839",-5.5,"V39",6.40113817505202e-05,6.40154797321655e-05,4.15632161550674
"840",-5.5,"V40",0.0434827318839209,0.0455582896387271,-2.45786602396384
"841",-5.5,"V41",0.00101356984441961,0.00101459925607002,1.39224645174654
"842",-5.5,"V42",0.00841232732725123,0.00848431085798617,-0.738983905051686
"843",-5.5,"V43",0.00339111204417783,0.003402690345767,0.179780389426151
"844",-5.5,"V44",0.00143969026765484,0.00144176896540445,1.04044166180745
"845",-5.5,"V45",0.0269404749472332,0.027708220426433,-1.94207319130362
"846",-5.5,"V46",0.0104478101273618,0.0105593091368085,-0.95986802873198
"847",-5.5,"V47",0.0226665361818095,0.0232050086062244,-1.76009134835349
"848",-5.5,"V48",0.0109290188333094,0.0110511466761676,-1.00589157944051
"849",-5.5,"V49",0.0114717773328206,0.0116064878940555,-1.05548333291734
"850",-5.5,"V50",0.0234858852309005,0.0240650099340252,-1.79736293989902
"851",-5.5,"V51",0.0715337644450842,0.0775473570269493,-3.02385276908498
"852",-5.5,"V52",0.00485127913922235,0.00487504520497288,-0.181261065239454
"853",-5.5,"V53",0.0280176178889954,0.0288499367388299,-1.98362679877156
"854",-5.5,"V54",0.0484692791432577,0.05107826867399,-2.57803281587365
"855",-5.5,"V55",0.00420882441142076,0.00422668931397765,-0.0378993865561951
"856",-5.5,"V56",0.00934067262644638,0.00942958979005509,-0.845571646040253
"857",-5.5,"V57",0.0150282236473753,0.0152611256020158,-1.33293228084376
"858",-5.5,"V58",0.00728921686459457,0.00734313854833461,-0.593381299498677
"859",-5.5,"V59",0.0242814278446222,0.0249015132044959,-1.83239009489464
"860",-5.5,"V60",0.0122854619468428,0.0124402210465293,-1.12569782557463
"861",-5.5,"V61",0.0412019872012646,0.0430557880892511,-2.39875157723556
"862",-5.5,"V62",0.000676691515254232,0.000677150047440981,1.79694029438603
"863",-5.5,"V63",0.0030926656524308,0.00310228985477383,0.272507665406372
"864",-5.5,"V64",0.0182054918392423,0.0185495787095439,-1.53141557848288
"865",-5.5,"V65",0.00790337944221094,0.00796685014341863,-0.67553267663813
"866",-5.5,"V66",0.000275595745835929,0.000275671740744574,2.69602403546251
"867",-5.5,"V67",0.101659227071356,0.114849674894796,-3.45786660897764
"868",-5.5,"V68",0.0774750832764143,0.0846388117269674,-3.11907420020112
"869",-5.5,"V69",0.00151041852699515,0.00151270680888479,0.992340792154458
"870",-5.5,"V70",0.00106963765698449,0.00107078423586426,1.33829261032173
"871",-5.5,"V71",0.0342360909215115,0.0354960612885091,-2.19780782468689
"872",-5.5,"V72",0.0205879703039781,0.0210302413554465,-1.65946071436295
"873",-5.5,"V73",0.0774911060961499,0.0846580999900803,-3.11932313531716
"874",-5.5,"V74",0.0484499065879337,0.0510566924298054,-2.57758757390686
"875",-5.5,"V75",0.004571239046561,0.00459232852786888,-0.121234826664866
"876",-5.5,"V76",0.00341412024925939,0.00342585674368766,0.172971955978446
"877",-5.5,"V77",0.0154205984997627,0.0156660227691667,-1.35952896513552
"878",-5.5,"V78",0.000475203356130177,0.000475429389234325,2.15081664249403
"879",-5.5,"V79",0.0358792783638098,0.0372681968610865,-2.24836546028706
"880",-5.5,"V80",0.112888624565353,0.129714467694663,-3.59651427662188
"881",-5.4,"V1",0.0088878990298187,0.00896832997231096,-0.694952988041792
"882",-5.4,"V2",0.0142106789786794,0.014418574262441,-1.17528550777643
"883",-5.4,"V3",0.0275932457380249,0.0283997940395116,-1.86743748390225
"884",-5.4,"V4",0.0103216150132487,0.0104304084333349,-0.847455335120406
"885",-5.4,"V5",0.0110182921965366,0.0111424463062236,-0.914211516394273
"886",-5.4,"V6",0.00927852992678178,0.00936625669118698,-0.738768634009751
"887",-5.4,"V7",0.0332798404531283,0.034467874849789,-2.06734835207458
"888",-5.4,"V8",0.0723628551237588,0.0785297817446158,-2.93750748030197
"889",-5.4,"V9",0.0213636345585122,0.0218406484847464,-1.59810025008907
"890",-5.4,"V10",0.0153163802831747,0.0155584455098579,-1.25252908015508
"891",-5.4,"V11",0.0530083719230345,0.0561626107717315,-2.57829735260356
"892",-5.4,"V12",0.0241649855520543,0.0247789835792763,-1.72733172875683
"893",-5.4,"V13",0.00397108399253331,0.00398698000207022,0.120726277183337
"894",-5.4,"V14",0.00525501203438395,0.00528292129175887,-0.162020865953684
"895",-5.4,"V15",0.00514649485257005,0.005173257445164,-0.140933962963528
"896",-5.4,"V16",0.00545775151544983,0.00548786821297279,-0.200287579363619
"897",-5.4,"V17",0.0153383035893537,0.0155810734388609,-1.2540053917575
"898",-5.4,"V18",0.00461110811990303,0.00463256881371685,-0.0299995870535039
"899",-5.4,"V19",0.00648587538256848,0.00652849665109179,-0.374971316409024
"900",-5.4,"V20",0.0500723665487015,0.0528673200812778,-2.51434619124433
"901",-5.4,"V21",0.00989412608618622,0.00999400624705235,-0.804274540595885
"902",-5.4,"V22",0.00968654700194782,0.00978223920582785,-0.782643536151985
"903",-5.4,"V23",0.0295949518135013,0.0305268397591842,-1.94185349857722
"904",-5.4,"V24",0.00968466313549558,0.00978031775080224,-0.782445153602013
"905",-5.4,"V25",0.00672958205180538,0.00677548930715678,-0.412354854780223
"906",-5.4,"V26",0.00659150977716917,0.0066355401705238,-0.391342451018105
"907",-5.4,"V27",0.00515903352178244,0.0051859273644114,-0.143392822902256
"908",-5.4,"V28",0.00412734492971079,0.00414452199225508,0.0818146842478843
"909",-5.4,"V29",0.0377136913216164,0.0392546162158718,-2.20235962327933
"910",-5.4,"V30",0.020680478658341,0.0211268212337854,-1.56414128924564
"911",-5.4,"V31",0.0132344751091015,0.0134144218219178,-1.10208031258256
"912",-5.4,"V32",0.0123326666946981,0.0124886326399128,-1.02963083379668
"913",-5.4,"V33",0.0189750612440633,0.01934946296094,-1.47444850039087
"914",-5.4,"V34",0.00436384689547138,0.00438305809372434,0.0256159114508497
"915",-5.4,"V35",0.0258010939885379,0.0265035311520664,-1.7963837776056
"916",-5.4,"V36",0.0393575058162591,0.0410419472503605,-2.24874731404659
"917",-5.4,"V37",0.0105497587650046,0.0106634683216515,-0.869789175881536
"918",-5.4,"V38",0.000724227907911764,0.000724753175076547,1.82895439330989
"919",-5.4,"V39",7.07425649752215e-05,7.07475701939099e-05,4.15632161550674
"920",-5.4,"V40",0.0475986291433821,0.0501096012842485,-2.45786602396384
"921",-5.4,"V41",0.00111992889572284,0.00112118595366554,1.39224645174654
"922",-5.4,"V42",0.00928049011232261,0.00936825430097026,-0.738983905051686
"923",-5.4,"V43",0.00374507747422497,0.00375920912748917,0.179780389426151
"924",-5.4,"V44",0.00159062139954123,0.00159315955691502,1.04044166180745
"925",-5.4,"V45",0.0296010572380153,0.0305333422254731,-1.94207319130362
"926",-5.4,"V46",0.0115210127894887,0.0116568960141739,-0.95986802873198
"927",-5.4,"V47",0.0249285721622206,0.0255830653973455,-1.76009134835349
"928",-5.4,"V48",0.0120504061076949,0.0121992272532718,-1.00589157944051
"929",-5.4,"V49",0.0126473794155153,0.0128115143145472,-1.05548333291734
"930",-5.4,"V50",0.0258250287616146,0.0265288063267361,-1.79736293989902
"931",-5.4,"V51",0.0777831067867257,0.0850097673278632,-3.02385276908498
"932",-5.4,"V52",0.00535599903173205,0.0053849972268654,-0.181261065239454
"933",-5.4,"V53",0.0307772063241738,0.0317876617646368,-1.98362679877156
"934",-5.4,"V54",0.0529959256250091,0.0561485897566721,-2.57803281587365
"935",-5.4,"V55",0.00464733770677637,0.00466913856168458,-0.0378993865561951
"936",-5.4,"V56",0.0103025950587405,0.0104109836390735,-0.845571646040253
"937",-5.4,"V57",0.0165555688200916,0.0168391249491445,-1.33293228084376
"938",-5.4,"V58",0.00804340210550182,0.00810916059099233,-0.593381299498677
"939",-5.4,"V59",0.026695120306712,0.0274485428090523,-1.83239009489464
"940",-5.4,"V60",0.0135420765404536,0.0137306060838844,-1.12569782557463
"941",-5.4,"V61",0.0451256354146786,0.0473695054624342,-2.39875157723556
"942",-5.4,"V62",0.000747753274644624,0.0007483132473608,1.79694029438603
"943",-5.4,"V63",0.00341569489265147,0.00342744225304946,0.272507665406372
"944",-5.4,"V64",0.0200419052991299,0.0204605389533932,-1.53141557848288
"945",-5.4,"V65",0.00871996640488255,0.00879735994691819,-0.67553267663813
"946",-5.4,"V66",0.000304562743025168,0.000304655558034209,2.69602403546251
"947",-5.4,"V67",0.109685080096071,0.125413668290033,-3.45786660897764
"948",-5.4,"V68",0.0841189665910314,0.0927150464245351,-3.11907420020112
"949",-5.4,"V69",0.00166873961912468,0.00167153364384719,0.992340792154458
"950",-5.4,"V70",0.0011818662238059,0.00118326634304448,1.33829261032173
"951",-5.4,"V71",0.0375558054786917,0.0390833106500608,-2.19780782468689
"952",-5.4,"V72",0.0226529091853995,0.0231907186152932,-1.65946071436295
"953",-5.4,"V73",0.084136025109952,0.0927359887124226,-3.11932313531716
"954",-5.4,"V74",0.0529749829626402,0.0561249984090568,-2.57758757390686
"955",-5.4,"V75",0.00504712396261209,0.00507285784937202,-0.121234826664866
"956",-5.4,"V76",0.00377046891716167,0.00378479357960187,0.172971955978446
"957",-5.4,"V77",0.0169863770404648,0.0172851535745609,-1.35952896513552
"958",-5.4,"V78",0.000525128413799786,0.00052540446365021,2.15081664249403
"959",-5.4,"V79",0.0393437128197118,0.041026921072392,-2.24836546028706
"960",-5.4,"V80",0.12142560417015,0.141427279579372,-3.59651427662188
"961",-5.3,"V1",0.00980414412391125,0.00990219764205354,-0.694952988041792
"962",-5.3,"V2",0.0156577059774481,0.0159108614908284,-1.17528550777643
"963",-5.3,"V3",0.0303138972280469,0.0312931590301321,-1.86743748390225
"964",-5.3,"V4",0.0113821631322618,0.0115147526611083,-0.847455335120406
"965",-5.3,"V5",0.0121486064555958,0.0122998938441738,-0.914211516394273
"966",-5.3,"V6",0.0102341889712865,0.0103411278974785,-0.738768634009751
"967",-5.3,"V7",0.0365146991101009,0.0379553042292347,-2.06734835207458
"968",-5.3,"V8",0.0786685028267551,0.0860779092954268,-2.93750748030197
"969",-5.3,"V9",0.0235023736608437,0.0240823323943979,-1.59810025008907
"970",-5.3,"V10",0.0168719578508592,0.0171666517843441,-1.25252908015508
"971",-5.3,"V11",0.0578973298669513,0.0617048139289588,-2.57829735260356
"972",-5.3,"V12",0.0265677860232368,0.0273138314095036,-1.72733172875683
"973",-5.3,"V13",0.00438504834341769,0.0044044475012086,0.120726277183337
"974",-5.3,"V14",0.00580123823541742,0.00583528883116049,-0.162020865953684
"975",-5.3,"V15",0.00568157234225623,0.00571422470624975,-0.140933962963528
"976",-5.3,"V16",0.00602479165861784,0.00606153385124766,-0.200287579363619
"977",-5.3,"V17",0.0168960274667798,0.017191577814533,-1.2540053917575
"978",-5.3,"V18",0.00509110050014173,0.00511728712768894,-0.0299995870535039
"979",-5.3,"V19",0.00715816776618544,0.00721015408816045,-0.374971316409024
"980",-5.3,"V20",0.0547282419003269,0.0581043583608533,-2.51434619124433
"981",-5.3,"V21",0.0109117501365425,0.011033487993853,-0.804274540595885
"982",-5.3,"V22",0.010683296633067,0.0107999352341283,-0.782643536151985
"983",-5.3,"V23",0.0324984700859204,0.0336294071083817,-1.94185349857722
"984",-5.3,"V24",0.010681223228501,0.0107978160601703,-0.782445153602013
"985",-5.3,"V25",0.00742675023015782,0.00748274165280037,-0.412354854780223
"986",-5.3,"V26",0.00727458799599785,0.00732829185754724,-0.391342451018105
"987",-5.3,"V27",0.00569539947810795,0.00572821188955964,-0.143392822902256
"988",-5.3,"V28",0.0045574476896851,0.00457840952344951,0.0818146842478843
"989",-5.3,"V29",0.0413380466705371,0.0432046920890464,-2.20235962327933
"990",-5.3,"V30",0.0227542347428204,0.0232969842163996,-1.56414128924564
"991",-5.3,"V31",0.014585174243044,0.014804342809052,-1.10208031258256
"992",-5.3,"V32",0.0135939713643665,0.0137839691704586,-1.02963083379668
"993",-5.3,"V33",0.0208855949594004,0.0213410347224241,-1.47444850039087
"994",-5.3,"V34",0.00481835342083934,0.00484179641334765,0.0256159114508497
"995",-5.3,"V35",0.0283563175742367,0.0292095132378275,-1.7963837776056
"996",-5.3,"V36",0.0431236875461996,0.0451634222560806,-2.24874731404659
"997",-5.3,"V37",0.0116331790359947,0.011771753209623,-0.869789175881536
"998",-5.3,"V38",0.000800273618790361,0.000800915083761758,1.82895439330989
"999",-5.3,"V39",7.81814620444375e-05,7.81875753413753e-05,4.15632161550674
"1000",-5.3,"V40",0.0520545127839199,0.0550893491766239,-2.45786602396384
"1001",-5.3,"V41",0.00123742100480341,0.00123895601681501,1.39224645174654
"1002",-5.3,"V42",0.0102363467528126,0.0103433312542476,-0.738983905051686
"1003",-5.3,"V43",0.00413567990353686,0.00415292670374353,0.179780389426151
"1004",-5.3,"V44",0.00175731957107218,0.00176041864487741,1.04044166180745
"1005",-5.3,"V45",0.0325051301885506,0.0336365475174438,-1.94207319130362
"1006",-5.3,"V46",0.0127015259020217,0.0128670878518078,-0.95986802873198
"1007",-5.3,"V47",0.0274026756313748,0.0281977910515623,-1.76009134835349
"1008",-5.3,"V48",0.0132836505632646,0.0134649555923691,-1.00589157944051
"1009",-5.3,"V49",0.0139399253370154,0.0141398610062926,-1.05548333291734
"1010",-5.3,"V50",0.0283824722648218,0.0292372914777783,-1.79736293989902
"1011",-5.3,"V51",0.0844468735206103,0.0931177977849244,-3.02385276908498
"1012",-5.3,"V52",0.00591259533185093,0.00594797372326356,-0.181261065239454
"1013",-5.3,"V53",0.0337877813351649,0.0350137435742481,-1.98362679877156
"1014",-5.3,"V54",0.057883905356868,0.0616894997343413,-2.57803281587365
"1015",-5.3,"V55",0.00513106194889302,0.00515766344106431,-0.0378993865561951
"1016",-5.3,"V56",0.0113612352427716,0.0114933319214277,-0.845571646040253
"1017",-5.3,"V57",0.0182320984186486,0.0185772111944104,-1.33293228084376
"1018",-5.3,"V58",0.00887419096512904,0.00895437173835774,-0.593381299498677
"1019",-5.3,"V59",0.0293330694370444,0.030248011645554,-1.83239009489464
"1020",-5.3,"V60",0.0149231781009073,0.0151527849939812,-1.12569782557463
"1021",-5.3,"V61",0.0493783192439707,0.0520918835787531,-2.39875157723556
"1022",-5.3,"V62",0.000826265112479099,0.000826948957056676,1.79694029438603
"1023",-5.3,"V63",0.00377220665632245,0.00378654457614962,0.272507665406372
"1024",-5.3,"V64",0.0220547117310666,0.0225638385407601,-1.53141557848288
"1025",-5.3,"V65",0.00961924508334986,0.00971359909064362,-0.67553267663813
"1026",-5.3,"V66",0.000336572317812088,0.000336685675055875,2.69602403546251
"1027",-5.3,"V67",0.118085161079469,0.136799175495799,-3.45786660897764
"1028",-5.3,"V68",0.0911790065905144,0.101476483241596,-3.11907420020112
"1029",-5.3,"V69",0.00184359424425039,0.00184700567421096,0.992340792154458
"1030",-5.3,"V70",0.00130583914853521,0.00130754883248454,1.33829261032173
"1031",-5.3,"V71",0.04116646493472,0.0430169203731062,-2.19780782468689
"1032",-5.3,"V72",0.0249136599449543,0.0255673492949229,-1.65946071436295
"1033",-5.3,"V73",0.0911970989699169,0.101499183150043,-3.11932313531716
"1034",-5.3,"V74",0.057861316523597,0.0616637324195008,-2.57758757390686
"1035",-5.3,"V75",0.00557198753593276,0.00560338546459762,-0.121234826664866
"1036",-5.3,"V76",0.00416369721389604,0.00418117947570409,0.172971955978446
"1037",-5.3,"V77",0.0187047814192385,0.0190683847148729,-1.35952896513552
"1038",-5.3,"V78",0.000580292518654338,0.000580629649444152,2.15081664249403
"1039",-5.3,"V79",0.0431087103412399,0.0451469581735656,-2.24836546028706
"1040",-5.3,"V80",0.130291305820736,0.154010557705493,-3.59651427662188
"1041",-5.2,"V1",0.0108127219958477,0.0109322357748853,-0.694952988041792
"1042",-5.2,"V2",0.0172466732139824,0.0175548458259555,-1.17528550777643
"1043",-5.2,"V3",0.0332826023683015,0.0344708412658789,-1.86743748390225
"1044",-5.2,"V4",0.0125488235947984,0.0127103772855392,-0.847455335120406
"1045",-5.2,"V5",0.0133916175852413,0.013575923278094,-0.914211516394273
"1046",-5.2,"V6",0.0112859657568426,0.0114162976079151,-0.738768634009751
"1047",-5.2,"V7",0.0400347248444164,0.0417803199822343,-2.06734835207458
"1048",-5.2,"V8",0.0853891065923775,0.0942773195794663,-2.93750748030197
"1049",-5.2,"V9",0.0258430654784839,0.0265478540321989,-1.59810025008907
"1050",-5.2,"V10",0.0185792494245645,0.0189378932243411,-1.25252908015508
"1051",-5.2,"V11",0.0631639733275556,0.0677546684203005,-2.57829735260356
"1052",-5.2,"V12",0.0291939771158577,0.030099986290549,-1.72733172875683
"1053",-5.2,"V13",0.00484174128386063,0.00486541353270486,0.120726277183337
"1054",-5.2,"V14",0.00640349768742567,0.00644503617877134,-0.162020865953684
"1055",-5.2,"V15",0.00627156820460244,0.00631140199980559,-0.140933962963528
"1056",-5.2,"V16",0.00664994318728624,0.0066947630394405,-0.200287579363619
"1057",-5.2,"V17",0.0186056572972808,0.0189653414745262,-1.2540053917575
"1058",-5.2,"V18",0.00562048481076656,0.00565243483027709,-0.0299995870535039
"1059",-5.2,"V19",0.0078990146774732,0.00796241472573785,-0.374971316409024
"1060",-5.2,"V20",0.0597515597809915,0.0638252182679419,-2.51434619124433
"1061",-5.2,"V21",0.012031410169189,0.0121797566410236,-0.804274540595885
"1062",-5.2,"V22",0.0117800929697031,0.0119222325998684,-0.782643536151985
"1063",-5.2,"V23",0.035663644997097,0.0370352551188126,-1.94185349857722
"1064",-5.2,"V24",0.0117778119439081,0.0119198958612512,-0.782445153602013
"1065",-5.2,"V25",0.00819492502692506,0.00826320559360729,-0.412354854780223
"1066",-5.2,"V26",0.00802728469701933,0.00809277774870934,-0.391342451018105
"1067",-5.2,"V27",0.00628681271702604,0.00632684164219141,-0.143392822902256
"1068",-5.2,"V28",0.00503191159342115,0.00505748979646247,0.0818146842478843
"1069",-5.2,"V29",0.0452732401605877,0.0475325869861872,-2.20235962327933
"1070",-5.2,"V30",0.0250245397569325,0.0256842188551307,-1.56414128924564
"1071",-5.2,"V31",0.0160690329247943,0.0163358943696507,-1.10208031258256
"1072",-5.2,"V32",0.0149801975647309,0.015211590036159,-1.02963083379668
"1073",-5.2,"V33",0.0229788861899541,0.0235326728829711,-1.47444850039087
"1074",-5.2,"V34",0.00531968495508308,0.00534828915193579,0.0256159114508497
"1075",-5.2,"V35",0.0311469174687807,0.0321826397714389,-1.7963837776056
"1076",-5.2,"V36",0.0472095014467306,0.049677339507249,-2.24874731404659
"1077",-5.2,"V37",0.0128248759228718,0.0129937124870684,-0.869789175881536
"1078",-5.2,"V38",0.000884290150936302,0.000885073506047409,1.82895439330989
"1079",-5.2,"V39",8.64024571932844e-05,8.64099238682273e-05,4.15632161550674
"1080",-5.2,"V40",0.0568682583861765,0.0605324339455487,-2.45786602396384
"1081",-5.2,"V41",0.0013672053851316,0.00136907976453325,1.39224645174654
"1082",-5.2,"V42",0.0112883400695231,0.0114187274050745,-0.738983905051686
"1083",-5.2,"V43",0.00456664316558739,0.00458769006572656,0.179780389426151
"1084",-5.2,"V44",0.00194141952952891,0.00194520334558459,1.04044166180745
"1085",-5.2,"V45",0.0356709003713581,0.0370430909591672,-1.94207319130362
"1086",-5.2,"V46",0.0139994420989377,0.0142011137301133,-0.95986802873198
"1087",-5.2,"V47",0.030105812566157,0.0310712341582753,-1.76009134835349
"1088",-5.2,"V48",0.0146392131149687,0.0148600337170403,-1.00589157944051
"1089",-5.2,"V49",0.0153602814980745,0.0156037587863367,-1.05548333291734
"1090",-5.2,"V50",0.031175464494574,0.0322131516326843,-1.79736293989902
"1091",-5.2,"V51",0.0915267554794768,0.10191301890099,-3.02385276908498
"1092",-5.2,"V52",0.00652626080203542,0.00656941805562499,-0.181261065239454
"1093",-5.2,"V53",0.0370677718993921,0.0385541980897346,-1.98362679877156
"1094",-5.2,"V54",0.0631495297604537,0.0677379611398356,-2.57803281587365
"1095",-5.2,"V55",0.0056645534603411,0.00569700937617331,-0.0378993865561951
"1096",-5.2,"V56",0.0125258069862583,0.0126867608880898,-0.845571646040253
"1097",-5.2,"V57",0.0200710792899557,0.0204909586774778,-1.33293228084376
"1098",-5.2,"V58",0.00978905162137145,0.00988680044439882,-0.593381299498677
"1099",-5.2,"V59",0.0322127779857326,0.0333232146182249,-1.83239009489464
"1100",-5.2,"V60",0.0164402213539082,0.0167197721341253,-1.12569782557463
"1101",-5.2,"V61",0.053978415250008,0.0572567507572904,-2.39875157723556
"1102",-5.2,"V62",0.000913005356083493,0.000913840460470687,1.79694029438603
"1103",-5.2,"V63",0.00416561465106404,0.00418311308615561,0.272507665406372
"1104",-5.2,"V64",0.0242589535138021,0.0248778615069616,-1.53141557848288
"1105",-5.2,"V65",0.0106092223364235,0.0107242314772001,-0.67553267663813
"1106",-5.2,"V66",0.000371943596304423,0.000372082041349918,2.69602403546251
"1107",-5.2,"V67",0.126828592376269,0.14904215691378,-3.45786660897764
"1108",-5.2,"V68",0.09865145934426,0.110964602310098,-3.11907420020112
"1109",-5.2,"V69",0.00203669540523657,0.00204086051688595,0.992340792154458
"1110",-5.2,"V70",0.00144277861275373,0.00144486625123769,1.33829261032173
"1111",-5.2,"V71",0.0450870973248735,0.0473269362165157,-2.19780782468689
"1112",-5.2,"V72",0.0273863737004349,0.0281805151336318,-1.65946071436295
"1113",-5.2,"V73",0.0986705683083042,0.110989162500971,-3.11932313531716
"1114",-5.2,"V74",0.063125225979388,0.0677098497298232,-2.57758757390686
"1115",-5.2,"V75",0.00615074701177009,0.00618905136861343,-0.121234826664866
"1116",-5.2,"V76",0.00459755274169564,0.004618886857498,0.172971955978446
"1117",-5.2,"V77",0.0205893163898138,0.0210316465462606,-1.35952896513552
"1118",-5.2,"V78",0.000641244097607724,0.000641655819798805,2.15081664249403
"1119",-5.2,"V79",0.0471932678671564,0.0496593154812197,-2.24836546028706
"1120",-5.2,"V80",0.139440425382187,0.167495000612302,-3.59651427662188
"1121",-5.1,"V1",0.0119224743265803,0.0120681136947292,-0.694952988041792
"1122",-5.1,"V2",0.0189903347752399,0.01936535161855,-1.17528550777643
"1123",-5.1,"V3",0.0365177067849129,0.0379585589851414,-1.86743748390225
"1124",-5.1,"V4",0.0138315910848522,0.014028386718784,-0.847455335120406
"1125",-5.1,"V5",0.0147578539151641,0.0149823239459865,-0.914211516394273
"1126",-5.1,"V6",0.0124430234558053,0.0126018295641696,-0.738768634009751
"1127",-5.1,"V7",0.0438589279840239,0.0459723884872462,-2.06734835207458
"1128",-5.1,"V8",0.0925256346478894,0.103169601275166,-2.93750748030197
"1129",-5.1,"V9",0.028402181673732,0.0292582254289853,-1.59810025008907
"1130",-5.1,"V10",0.0204516970842827,0.0208880058736608,-1.25252908015508
"1131",-5.1,"V11",0.0688226559513771,0.0743506794923515,-2.57829735260356
"1132",-5.1,"V12",0.032061025663104,0.0331606546820459,-1.72733172875683
"1133",-5.1,"V13",0.00534547969611811,0.00537436347892167,0.120726277183337
"1134",-5.1,"V14",0.0070673752078419,0.00711804172585288,-0.162020865953684
"1135",-5.1,"V15",0.00692196247631263,0.00697055105836997,-0.140933962963528
"1136",-5.1,"V16",0.00733898550232704,0.00739365158610373,-0.200287579363619
"1137",-5.1,"V17",0.0204806483758706,0.0209182203171055,-1.2540053917575
"1138",-5.1,"V18",0.00620421770135677,0.00624319518750607,-0.0299995870535039
"1139",-5.1,"V19",0.00871515879127315,0.00879246625410268,-0.374971316409024
"1140",-5.1,"V20",0.0651579967547121,0.0700674433759547,-2.51434619124433
"1141",-5.1,"V21",0.01326276481891,0.0134434923042442,-0.804274540595885
"1142",-5.1,"V22",0.0129864291016336,0.0131596042866138,-0.782643536151985
"1143",-5.1,"V23",0.0391091670502743,0.0407714806877455,-1.94185349857722
"1144",-5.1,"V24",0.0129839208620073,0.0131570282544969,-0.782445153602013
"1145",-5.1,"V25",0.009041071720133,0.00912432502733749,-0.412354854780223
"1146",-5.1,"V26",0.00885643931109798,0.0089362967099869,-0.391342451018105
"1147",-5.1,"V27",0.00693876540461143,0.00698759184439529,-0.143392822902256
"1148",-5.1,"V28",0.00555521114070433,0.0055864192204105,0.0818146842478843
"1149",-5.1,"V29",0.0495381435138707,0.0522703310186723,-2.20235962327933
"1150",-5.1,"V30",0.0275075840831399,0.0283089825777259,-1.56414128924564
"1151",-5.1,"V31",0.0176981625837088,0.0180229907803784,-1.10208031258256
"1152",-5.1,"V32",0.0165028334346773,0.0167845547115421,-1.02963083379668
"1153",-5.1,"V33",0.0252703560784183,0.0259434169620871,-1.47444850039087
"1154",-5.1,"V34",0.00587255280804463,0.00590745078279578,0.0256159114508497
"1155",-5.1,"V35",0.0341908258263236,0.0354473397195142,-1.7963837776056
"1156",-5.1,"V36",0.0516336273585403,0.054616600397523,-2.24874731404659
"1157",-5.1,"V37",0.0141350207739435,0.0143406757550551,-0.869789175881536
"1158",-5.1,"V38",0.000977109842917292,0.000978066456911428,1.82895439330989
"1159",-5.1,"V39",9.54877473832012e-05,9.54968670348147e-05,4.15632161550674
"1160",-5.1,"V40",0.0620564956959554,0.0664754859249081,-2.45786602396384
"1161",-5.1,"V41",0.00151056059605408,0.00151284930908608,1.39224645174654
"1162",-5.1,"V42",0.0124456348341449,0.0126045084678613,-0.738983905051686
"1163",-5.1,"V43",0.00504205454836404,0.00506773650161383,0.179780389426151
"1164",-5.1,"V44",0.00214472278433728,0.00214934245733619,1.04044166180745
"1165",-5.1,"V45",0.0391170591550909,0.0407800735541748,-1.94207319130362
"1166",-5.1,"V46",0.0154256640462304,0.0156712521914793,-0.95986802873198
"1167",-5.1,"V47",0.0330556774902769,0.0342271771456356,-1.76009134835349
"1168",-5.1,"V48",0.0161283809378988,0.0163972507707373,-1.00589157944051
"1169",-5.1,"V49",0.0169201567973119,0.0172165669757421,-1.05548333291734
"1170",-5.1,"V50",0.0342219437865321,0.0354808333195842,-1.79736293989902
"1171",-5.1,"V51",0.0990187112627072,0.111436892207594,-3.02385276908498
"1172",-5.1,"V52",0.0072026773753784,0.00725531700015108,-0.181261065239454
"1173",-5.1,"V53",0.0406360151581158,0.0424369061627848,-1.98362679877156
"1174",-5.1,"V54",0.0688071585195394,0.0743324754218844,-2.57803281587365
"1175",-5.1,"V55",0.00625280464635281,0.00629239893065533,-0.0378993865561951
"1176",-5.1,"V56",0.0138062901608686,0.0140023561382922,-0.845571646040253
"1177",-5.1,"V57",0.0220866746434514,0.0225973132076563,-1.33293228084376
"1178",-5.1,"V58",0.0107961118169072,0.0109152545998875,-0.593381299498677
"1179",-5.1,"V59",0.0353523968475879,0.0366992303563352,-1.83239009489464
"1180",-5.1,"V60",0.0181055238136167,0.0184457702538755,-1.12569782557463
"1181",-5.1,"V61",0.0589433536731882,0.0628997296651353,-2.39875157723556
"1182",-5.1,"V62",0.00100883304151441,0.00100985284428151,1.79694029438603
"1183",-5.1,"V63",0.00459966810507248,0.00462102194892493,0.272507665406372
"1184",-5.1,"V64",0.0266705442553471,0.0274225399528106,-1.53141557848288
"1185",-5.1,"V65",0.0116985999378173,0.01183875608342,-0.67553267663813
"1186",-5.1,"V66",0.000411029076218535,0.000411198160145442,2.69602403546251
"1187",-5.1,"V67",0.135874256339236,0.162174980706336,-3.45786660897764
"1188",-5.1,"V68",0.106525849243155,0.121220181692788,-3.11907420020112
"1189",-5.1,"V69",0.00224993058070769,0.00225501567640854,0.992340792154458
"1190",-5.1,"V70",0.00159403247554146,0.00159658154818146,1.33829261032173
"1191",-5.1,"V71",0.0493365888605796,0.0520453023581286,-2.19780782468689
"1192",-5.1,"V72",0.0300880115431275,0.0310522540230389,-1.65946071436295
"1193",-5.1,"V73",0.106545939419226,0.121246702217955,-3.11932313531716
"1194",-5.1,"V74",0.0687810811641603,0.0743018453929595,-2.57758757390686
"1195",-5.1,"V75",0.0067887860922986,0.00683551029326798,-0.121234826664866
"1196",-5.1,"V76",0.00507614867900473,0.00510218092923943,0.172971955978446
"1197",-5.1,"V77",0.0226543836001973,0.0231922647441605,-1.35952896513552
"1198",-5.1,"V78",0.000708588688702374,0.000709091499456976,2.15081664249403
"1199",-5.1,"V79",0.0516160671576684,0.0545968872556776,-2.24836546028706
"1200",-5.1,"V80",0.148816344529152,0.181906215919192,-3.59651427662188
"1201",-5,"V1",0.01314298818024,0.0133204218176399,-0.694952988041792
"1202",-5,"V2",0.0209023366151185,0.0213585231252086,-1.17528550777643
"1203",-5,"V3",0.0400379951583122,0.0417838884961728,-1.86743748390225
"1204",-5,"V4",0.0152412657755081,0.0154809248084324,-0.847455335120406
"1205",-5,"V5",0.0162586728559146,0.0165319791919166,-0.914211516394273
"1206",-5,"V6",0.0137152885595663,0.0139087416539629,-0.738768634009751
"1207",-5,"V7",0.0480062728170944,0.0505628773867188,-2.06734835207458
"1208",-5,"V8",0.10007318230752,0.112796154858348,-2.93750748030197
"1209",-5,"V9",0.0311969764700683,0.0322361455499884,-1.59810025008907
"1210",-5,"V10",0.02250363976508,0.023034214817331,-1.25252908015508
"1211",-5,"V11",0.0748850867623441,0.0815326616835481,-2.57829735260356
"1212",-5,"V12",0.0351870529269507,0.0365208234741832,-1.72733172875683
"1213",-5,"V13",0.00590099601655992,0.00593623490136409,0.120726277183337
"1214",-5,"V14",0.00779897637739799,0.00786076805176159,-0.162020865953684
"1215",-5,"V15",0.00763874759916748,0.00769800690954692,-0.140933962963528
"1216",-5,"V16",0.00809823412154944,0.00816489970880427,-0.200287579363619
"1217",-5,"V17",0.0225353528670005,0.0230674606058006,-1.2540053917575
"1218",-5,"V18",0.00684772555232364,0.00689527030490129,-0.0299995870535039
"1219",-5,"V19",0.00961395155382026,0.00970820071494186,-0.374971316409024
"1220",-5,"V20",0.0709610377820556,0.0768700409827444,-2.51434619124433
"1221",-5,"V21",0.0146162619274314,0.0148363801019613,-0.804274540595885
"1222",-5,"V22",0.0143125789195158,0.014523511299997,-0.782643536151985
"1223",-5,"V23",0.0428540123233256,0.044867065928344,-1.94185349857722
"1224",-5,"V24",0.014309822286178,0.0145206722075367,-0.782445153602013
"1225",-5,"V25",0.00997278031776703,0.0100742712591704,-0.412354854780223
"1226",-5,"V26",0.00976950701674546,0.00986686198211966,-0.391342451018105
"1227",-5,"V27",0.00765726308277191,0.00771681227445102,-0.143392822902256
"1228",-5,"V28",0.00613224993232791,0.00617032281598133,0.0818146842478843
"1229",-5,"V29",0.0541511072832174,0.0574518187623153,-2.20235962327933
"1230",-5,"V30",0.0302203649970688,0.031193392748213,-1.56414128924564
"1231",-5,"V31",0.0194855550568847,0.0198808013179276,-1.10208031258256
"1232",-5,"V32",0.0181742309308919,0.0185171144587711,-1.02963083379668
"1233",-5,"V33",0.0277762810661337,0.0285938917092118,-1.47444850039087
"1234",-5,"V34",0.00648211750041116,0.00652468906784319,0.0256159114508497
"1235",-5,"V35",0.0375065341809887,0.0390298645042053,-1.7963837776056
"1236",-5,"V36",0.0564140288380135,0.0600159421501883,-2.24874731404659
"1237",-5,"V37",0.0155745985522481,0.0158250301308917,-0.869789175881536
"1238",-5,"V38",0.00107965125592238,0.0010808194265552,1.82895439330989
"1239",-5,"V39",0.000105528161687079,0.000105539300230972,4.15632161550674
"1240",-5,"V40",0.067634030540956,0.0729567124294727,-2.45786602396384
"1241",-5,"V41",0.00166889652975525,0.00167169108082496,1.39224645174654
"1242",-5,"V42",0.0137181592244424,0.0139116944673966,-0.738983905051686
"1243",-5,"V43",0.0055663969331978,0.00559773153149651,0.179780389426151
"1244",-5,"V44",0.00236921401382936,0.00237485394508987,1.04044166180745
"1245",-5,"V45",0.0428625829851658,0.0448764815845766,-1.94207319130362
"1246",-5,"V46",0.016991938273164,0.0172909139794073,-0.95986802873198
"1247",-5,"V47",0.0362705767953688,0.0376912036261573,-1.76009134835349
"1248",-5,"V48",0.0177632986296663,0.0180905672532092,-1.00589157944051
"1249",-5,"V49",0.0186321304028695,0.0189928590996486,-1.05548333291734
"1250",-5,"V50",0.0375404063593765,0.0390666060691376,-1.79736293989902
"1251",-5,"V51",0.106911916705411,0.121730144877246,-3.02385276908498
"1252",-5,"V52",0.00794805543867794,0.00801225161461382,-0.181261065239454
"1253",-5,"V53",0.0445115341483439,0.0466916437438462,-1.98362679877156
"1254",-5,"V54",0.074868508649849,0.0815128540204001,-2.57803281587365
"1255",-5,"V55",0.00690128060645411,0.00694957723013167,-0.0378993865561951
"1256",-5,"V56",0.0152134694322682,0.0154522411900641,-0.845571646040253
"1257",-5,"V57",0.0242939402837722,0.0249146816452567,-1.33293228084376
"1258",-5,"V58",0.0119042018505956,0.012049389641324,-0.593381299498677
"1259",-5,"V59",0.0387705783436795,0.0404029790606553,-1.83239009489464
"1260",-5,"V60",0.019932287735669,0.0203462579481621,-1.12569782557463
"1261",-5,"V61",0.0642890936340242,0.0690581171828667,-2.39875157723556
"1262",-5,"V62",0.00111469614869798,0.00111594147407153,1.79694029438603
"1263",-5,"V63",0.00507848196779438,0.00510453827883447,0.272507665406372
"1264",-5,"V64",0.0293062246664183,0.0302194391701785,-1.53141557848288
"1265",-5,"V65",0.012896816971009,0.0130675785809791,-0.67553267663813
"1266",-5,"V66",0.000454218094359362,0.000454424596072878,2.69602403546251
"1267",-5,"V67",0.145169980221157,0.17622535649183,-3.45786660897764
"1268",-5,"V68",0.114783892009901,0.132282570456472,-3.11907420020112
"1269",-5,"V69",0.00248537883052375,0.0024915868354825,0.992340792154458
"1270",-5,"V70",0.00176108686268957,0.00176419926172464,1.33829261032173
"1271",-5,"V71",0.0539333228111518,0.0572058297709328,-2.19780782468689
"1272",-5,"V72",0.0330362637269157,0.0342063372338732,-1.65946071436295
"1273",-5,"V73",0.114804907242483,0.132311146813617,-3.11932313531716
"1274",-5,"V74",0.0748406125322083,0.0814795256289225,-2.57758757390686
"1275",-5,"V75",0.00749199314509765,0.00754898024788054,-0.121234826664866
"1276",-5,"V76",0.00560399606187546,0.00563575782817327,0.172971955978446
"1277",-5,"V77",0.0249152734226044,0.0255690497265217,-1.35952896513552
"1278",-5,"V78",0.000782994822339753,0.000783608865193363,2.15081664249403
"1279",-5,"V79",0.0563950753655595,0.0599944038600867,-2.24836546028706
"1280",-5,"V80",0.158350649325132,0.197263562360148,-3.59651427662188
"1281",-4.9,"V1",0.0144846362242734,0.014700748222577,-0.694952988041792
"1282",-4.9,"V2",0.0229972213972567,0.0235519140528075,-1.17528550777643
"1283",-4.9,"V3",0.0438624779058586,0.0459762978718607,-1.86743748390225
"1284",-4.9,"V4",0.0167894878067389,0.017081257152654,-0.847455335120406
"1285",-4.9,"V5",0.0179062915310564,0.0182389508595121,-0.914211516394273
"1286",-4.9,"V6",0.0151134898310475,0.0153490842173591,-0.738768634009751
"1287",-4.9,"V7",0.0524953385503661,0.0555850346245821,-2.06734835207458
"1288",-4.9,"V8",0.108019915807247,0.123197552830727,-2.93750748030197
"1289",-4.9,"V9",0.034245392849541,0.0355060741511693,-1.59810025008907
"1290",-4.9,"V10",0.0247503062732236,0.0253952236578561,-1.25252908015508
"1291",-4.9,"V11",0.081359543670019,0.089341435825355,-2.57829735260356
"1292",-4.9,"V12",0.0385906901040373,0.0402073185706816,-1.72733172875683
"1293",-4.9,"V13",0.00651347367208124,0.00655646085097156,0.120726277183337
"1294",-4.9,"V14",0.0086049681311325,0.00868031601729257,-0.162020865953684
"1295",-4.9,"V15",0.00842846868728037,0.00850073111680051,-0.140933962963528
"1296",-4.9,"V16",0.00893458182121454,0.00901586769144417,-0.200287579363619
"1297",-4.9,"V17",0.0247850125721611,0.0254317884351725,-1.2540053917575
"1298",-4.9,"V18",0.00755694284481305,0.00761493000377545,-0.0299995870535039
"1299",-4.9,"V19",0.0106033960442539,0.0107182775171894,-0.374971316409024
"1300",-4.9,"V20",0.0771712505986216,0.0842732274661897,-2.51434619124433
"1301",-4.9,"V21",0.0161031750441532,0.0163711909368438,-0.804274540595885
"1302",-4.9,"V22",0.0157696345037488,0.0160264826498755,-0.782643536151985
"1303",-4.9,"V23",0.0469171862337507,0.0493528944215338,-1.94185349857722
"1304",-4.9,"V24",0.0157666066395261,0.0160233545299176,-0.782445153602013
"1305",-4.9,"V25",0.0109983085693852,0.0111220076229502,-0.412354854780223
"1306",-4.9,"V26",0.0107746016786391,0.0108932648987944,-0.391342451018105
"1307",-4.9,"V27",0.00844886497495279,0.00852148060668286,-0.143392822902256
"1308",-4.9,"V28",0.00676839689040564,0.00681483891990996,0.0818146842478843
"1309",-4.9,"V29",0.0591295182882582,0.063112735695189,-2.20235962327933
"1310",-4.9,"V30",0.0331806043328498,0.0343613035118858,-1.56414128924564
"1311",-4.9,"V31",0.0214450966793094,0.0219258390995278,-1.10208031258256
"1312",-4.9,"V32",0.0200076274168083,0.0204247998663904,-1.02963083379668
"1313",-4.9,"V33",0.0305137374744474,0.0315063900910146,-1.47444850039087
"1314",-4.9,"V34",0.00715402608703388,0.00720595182879276,0.0256159114508497
"1315",-4.9,"V35",0.0411129169327911,0.0429583355237634,-1.7963837776056
"1316",-4.9,"V36",0.0615674718071865,0.0659118428328025,-2.24874731404659
"1317",-4.9,"V37",0.0171554411282093,0.0174603033202442,-0.869789175881536
"1318",-4.9,"V38",0.00119292795221436,0.00119435443473012,1.82895439330989
"1319",-4.9,"V39",0.000116624066344018,0.000116637670690242,4.15632161550674
"1320",-4.9,"V40",0.0736131731130303,0.0800156825702063,-2.45786602396384
"1321",-4.9,"V41",0.00184376753531451,0.00184717960781805,1.39224645174654
"1322",-4.9,"V42",0.0151166437698169,0.0153523380535267,-0.738983905051686
"1323",-4.9,"V43",0.00614458301920075,0.0061828101606838,0.179780389426151
"1324",-4.9,"V44",0.00261707895109032,0.00262396413889252,1.04044166180745
"1325",-4.9,"V45",0.0469264770152938,0.0493632028066215,-1.94207319130362
"1326",-4.9,"V46",0.0187108826167061,0.0190747278596248,-0.95986802873198
"1327",-4.9,"V47",0.0397692695047374,0.0414907520068297,-1.76009134835349
"1328",-4.9,"V48",0.0195569919334092,0.0199552020211126,-1.00589157944051
"1329",-4.9,"V49",0.020509670841117,0.0209485109522328,-1.05548333291734
"1330",-4.9,"V50",0.0411497293205571,0.0429986097620239,-1.79736293989902
"1331",-4.9,"V51",0.115187687423073,0.132832037649079,-3.02385276908498
"1332",-4.9,"V52",0.00876917470648631,0.00884745211542098,-0.181261065239454
"1333",-4.9,"V53",0.0487132554664899,0.0513500868901119,-1.98362679877156
"1334",-4.9,"V54",0.0813418682572395,0.0893199155756874,-2.57803281587365
"1335",-4.9,"V55",0.00761595764862132,0.00767486114217296,-0.0378993865561951
"1336",-4.9,"V56",0.0167589688334217,0.0170496597303422,-0.845571646040253
"1337",-4.9,"V57",0.0267088027565671,0.027463020237111,-1.33293228084376
"1338",-4.9,"V58",0.0131228967536526,0.0132997809263413,-0.593381299498677
"1339",-4.9,"V59",0.0424862815574323,0.0444632633446917,-1.83239009489464
"1340",-4.9,"V60",0.0219346114178364,0.0224380787979808,-1.12569782557463
"1341",-4.9,"V61",0.0700295071936591,0.0757707072745436,-2.39875157723556
"1342",-4.9,"V62",0.00123164064706923,0.00123316133394477,1.79694029438603
"1343",-4.9,"V63",0.00560656920104478,0.00563836030800769,0.272507665406372
"1344",-4.9,"V64",0.0321834905984368,0.0332918370099327,-1.53141557848288
"1345",-4.9,"V65",0.0142140905244488,0.0144220871213857,-0.67553267663813
"1346",-4.9,"V66",0.000501940649455244,0.000502192847110933,2.69602403546251
"1347",-4.9,"V67",0.154651946130239,0.191215198123741,-3.45786660897764
"1348",-4.9,"V68",0.123398428534056,0.144188854213441,-3.11907420020112
"1349",-4.9,"V69",0.00274532942954765,0.00275290793162767,0.992340792154458
"1350",-4.9,"V70",0.00194557994250921,0.00194938002499104,1.33829261032173
"1351",-4.9,"V71",0.058894740661728,0.0628441246668736,-2.19780782468689
"1352",-4.9,"V72",0.0362494332351687,0.0376683368350905,-1.65946071436295
"1353",-4.9,"V73",0.123420289283933,0.144219575136479,-3.11932313531716
"1354",-4.9,"V74",0.0813121253368921,0.0892837053839866,-2.57758757390686
"1355",-4.9,"V75",0.00826680115605859,0.0083362949698835,-0.121234826664866
"1356",-4.9,"V76",0.00618603814919845,0.00622478611133026,0.172971955978446
"1357",-4.9,"V77",0.0273881375481813,0.0281823843349861,-1.35952896513552
"1358",-4.9,"V78",0.000865200493476569,0.00086595036350863,2.15081664249403
"1359",-4.9,"V79",0.061547064011608,0.065888336958805,-2.24836546028706
"1360",-4.9,"V80",0.167962987803688,0.213578959927327,-3.59651427662188
"1361",-4.8,"V1",0.0159586136227778,0.016221759090777,-0.694952988041792
"1362",-4.8,"V2",0.0252904175814853,0.0259645768315255,-1.17528550777643
"1363",-4.8,"V3",0.0480101191340375,0.0505671564449673,-1.86743748390225
"1364",-4.8,"V4",0.0184887656443216,0.0188438565749385,-0.847455335120406
"1365",-4.8,"V5",0.0197138097694327,0.0201185664869214,-0.914211516394273
"1366",-4.8,"V6",0.0166491932172801,0.0169360220605143,-0.738768634009751
"1367",-4.8,"V7",0.0573439049707503,0.0610739298819793,-2.06734835207458
"1368",-4.8,"V8",0.116345994024355,0.134412792926715,-2.93750748030197
"1369",-4.8,"V9",0.0375659305471501,0.0390942944019353,-1.59810025008907
"1370",-4.8,"V10",0.0272077893738964,0.0279913023829925,-1.25252908015508
"1371",-4.8,"V11",0.0882499950047961,0.0978184427460604,-2.57829735260356
"1372",-4.8,"V12",0.0422908862731013,0.0442488467080981,-1.72733172875683
"1373",-4.8,"V13",0.0071885844974188,0.00724101682203581,0.120726277183337
"1374",-4.8,"V14",0.0094926206723178,0.00958448298643506,-0.162020865953684
"1375",-4.8,"V15",0.0092982651946833,0.00938636911993904,-0.140933962963528
"1376",-4.8,"V16",0.00985554094543975,0.0099546357177121,-0.200287579363619
"1377",-4.8,"V17",0.0272457327046413,0.0280314975601033,-1.2540053917575
"1378",-4.8,"V18",0.00833835225484071,0.00840906462266893,-0.0299995870535039
"1379",-4.8,"V19",0.0116921900159382,0.0118321907539766,-0.374971316409024
"1380",-4.8,"V20",0.0837954654136837,0.0923180963222475,-2.51434619124433
"1381",-4.8,"V21",0.0177356346898319,0.018061865681737,-0.804274540595885
"1382",-4.8,"V22",0.0173695386897444,0.0176821988457655,-0.782643536151985
"1383",-4.8,"V23",0.0513174023848491,0.0542617386681385,-1.94185349857722
"1384",-4.8,"V24",0.0173662150416384,0.0176787533620754,-0.782445153602013
"1385",-4.8,"V25",0.0121266248756767,0.0122773584050835,-0.412354854780223
"1386",-4.8,"V26",0.0118805388459533,0.012025142907909,-0.391342451018105
"1387",-4.8,"V27",0.00932072568342673,0.00940925985443501,-0.143392822902256
"1388",-4.8,"V28",0.00746952441035524,0.00752616760923758,0.0818146842478843
"1389",-4.8,"V29",0.0644892716200694,0.0692904361638453,-2.20235962327933
"1390",-4.8,"V30",0.0364066302192196,0.0378383726651677,-1.56414128924564
"1391",-4.8,"V31",0.023591569278397,0.024176050706143,-1.10208031258256
"1392",-4.8,"V32",0.0220171564812678,0.0225245100335179,-1.02963083379668
"1393",-4.8,"V33",0.0335005157664033,0.0347049492702542,-1.47444850039087
"1394",-4.8,"V34",0.00789445132080202,0.00795777754424572,0.0256159114508497
"1395",-4.8,"V35",0.0450290018761773,0.0472627714404053,-1.7963837776056
"1396",-4.8,"V36",0.0671089548104661,0.0723423738672091,-2.24874731404659
"1397",-4.8,"V37",0.0188902539665243,0.0192612497067917,-0.869789175881536
"1398",-4.8,"V38",0.00131805813322091,0.00131980000527484,1.82895439330989
"1399",-4.8,"V39",0.000128886364381797,0.000128902980360142,4.15632161550674
"1400",-4.8,"V40",0.0800029708402041,0.0876930401269026,-2.45786602396384
"1401",-4.8,"V41",0.00203688677259204,0.00204105266858799,1.39224645174654
"1402",-4.8,"V42",0.0166526562532844,0.0169396065224188,-0.738983905051686
"1403",-4.8,"V43",0.00678199158415638,0.00682862165790317,0.179780389426151
"1404",-4.8,"V44",0.00289072385132355,0.00289912879911742,1.04044166180745
"1405",-4.8,"V45",0.0513274538018239,0.0542730138322606,-1.94207319130362
"1406",-4.8,"V46",0.0205960048673471,0.0210386287677753,-0.95986802873198
"1407",-4.8,"V47",0.0435707579475069,0.0456551507362573,-1.76009134835349
"1408",-4.8,"V48",0.0215233813897908,0.0220077211813885,-1.00589157944051
"1409",-4.8,"V49",0.0225671435189878,0.023100790018465,-1.05548333291734
"1410",-4.8,"V50",0.045068940636439,0.0473068816918453,-1.79736293989902
"1411",-4.8,"V51",0.123818414339357,0.144779525279521,-3.02385276908498
"1412",-4.8,"V52",0.00967342634254177,0.00976885690782738,-0.181261065239454
"1413",-4.8,"V53",0.0532596585233809,0.0564457851889815,-1.98362679877156
"1414",-4.8,"V54",0.0882312183070681,0.0977950998645941,-2.57803281587365
"1415",-4.8,"V55",0.00840336350883995,0.00847519239497173,-0.0378993865561951
"1416",-4.8,"V56",0.0184552802591022,0.0188090610361644,-0.845571646040253
"1417",-4.8,"V57",0.0293480148408303,0.0302639196749203,-1.33293228084376
"1418",-4.8,"V58",0.0144625565501519,0.0146780002412336,-0.593381299498677
"1419",-4.8,"V59",0.0465185218106834,0.0489107868843275,-1.83239009489464
"1420",-4.8,"V60",0.0241274865819789,0.0247395309748337,-1.12569782557463
"1421",-4.8,"V61",0.0761756686371226,0.0830775475428585,-2.39875157723556
"1422",-4.8,"V62",0.00136082042479511,0.0013626773142579,1.79694029438603
"1423",-4.8,"V63",0.00618887515383039,0.00622765888906899,0.272507665406372
"1424",-4.8,"V64",0.0353204872662147,0.036664794415765,-1.53141557848288
"1425",-4.8,"V65",0.0156614533550269,0.0159147320512913,-0.67553267663813
"1426",-4.8,"V66",0.000554671615666722,0.000554979618043165,2.69602403546251
"1427",-4.8,"V67",0.164244407650304,0.20715944210254,-3.45786660897764
"1428",-4.8,"V68",0.132332420086232,0.156972916646851,-3.11907420020112
"1429",-4.8,"V69",0.00303230213215777,0.00304155317789171,0.992340792154458
"1430",-4.8,"V70",0.00214931698319938,0.00215395651185434,1.33829261032173
"1431",-4.8,"V71",0.064236818148521,0.0689974688572247,-2.19780782468689
"1432",-4.8,"V72",0.0397462768358518,0.0414656794043131,-1.65946071436295
"1433",-4.8,"V73",0.13235502105497,0.157005861646252,-3.11932313531716
"1434",-4.8,"V74",0.0881996217942765,0.0977558226577748,-2.57758757390686
"1435",-4.8,"V75",0.0091202291500682,0.00920496044689714,-0.121234826664866
"1436",-4.8,"V76",0.00682768681907641,0.00687495178106843,0.172971955978446
"1437",-4.8,"V77",0.0300899375971155,0.0310543076187985,-1.35952896513552
"1438",-4.8,"V78",0.000956020280887916,0.000956936007410194,2.15081664249403
"1439",-4.8,"V79",0.067087039589656,0.0723167522449073,-2.24836546028706
"1440",-4.8,"V80",0.177561349104801,0.230855706181239,-3.59651427662188
"1441",-4.7,"V1",0.0175769698732168,0.017897282597595,-0.694952988041792
"1442",-4.7,"V2",0.0277982085724126,0.0286171498372184,-1.17528550777643
"1443",-4.7,"V3",0.0524994975333203,0.0555897138153982,-1.86743748390225
"1444",-4.7,"V4",0.0203524959651181,0.0207844910326024,-0.847455335120406
"1445",-4.7,"V5",0.0216952227847477,0.0221875083097426,-0.914211516394273
"1446",-4.7,"V6",0.0183348308267137,0.0186839196813737,-0.738768634009751
"1447",-4.7,"V7",0.0625684551220376,0.0670663504900983,-2.06734835207458
"1448",-4.7,"V8",0.125022509489569,0.146478444065385,-2.93750748030197
"1449",-4.7,"V9",0.0411774686945369,0.0430289601019961,-1.59810025008907
"1450",-4.7,"V10",0.0298929962494885,0.0308443715028973,-1.25252908015508
"1451",-4.7,"V11",0.0955551381681872,0.107005264880288,-2.57829735260356
"1452",-4.7,"V12",0.0463066608932357,0.0486760153650548,-1.72733172875683
"1453",-4.7,"V13",0.00793252798388696,0.00799647154099287,0.120726277183337
"1454",-4.7,"V14",0.0104698502611784,0.0105818252875956,-0.162020865953684
"1455",-4.7,"V15",0.010255913564116,0.0103633117954865,-0.140933962963528
"1456",-4.7,"V16",0.0108692863794547,0.0109900679735173,-0.200287579363619
"1457",-4.7,"V17",0.0299344319602406,0.0308885334595205,-1.2540053917575
"1458",-4.7,"V18",0.0091990261857627,0.00928524190295917,-0.0299995870535039
"1459",-4.7,"V19",0.0128897682976496,0.0130603407994473,-0.374971316409024
"1460",-4.7,"V20",0.0908358651731107,0.10104619963348,-2.51434619124433
"1461",-4.7,"V21",0.0195266522194939,0.0199236021417986,-0.804274540595885
"1462",-4.7,"V22",0.0191251107373278,0.0195055783230442,-0.782643536151985
"1463",-4.7,"V23",0.0560726881862467,0.0596282118326002,-1.94185349857722
"1464",-4.7,"V24",0.0191214649939985,0.0195017845964446,-0.782445153602013
"1465",-4.7,"V25",0.013367450193821,0.0135510820176706,-0.412354854780223
"1466",-4.7,"V26",0.0130968779552553,0.0132730518609591,-0.391342451018105
"1467",-4.7,"V27",0.0102806378557245,0.0103885600353322,-0.143392822902256
"1468",-4.7,"V28",0.00824204826416964,0.00831112303019264,0.0818146842478843
"1469",-4.7,"V29",0.0702441513283715,0.0760237640248825,-2.20235962327933
"1470",-4.7,"V30",0.0399172159649574,0.0416521146170273,-1.56414128924564
"1471",-4.7,"V31",0.025940634355494,0.0266509050980386,-1.10208031258256
"1472",-4.7,"V32",0.0242178446981852,0.0248346021627682,-1.02963083379668
"1473",-4.7,"V33",0.0367549981976154,0.0382154162356818,-1.47444850039087
"1474",-4.7,"V34",0.00871013242693355,0.00878734994600714,0.0256159114508497
"1475",-4.7,"V35",0.0492736796019231,0.0519750895339893,-1.7963837776056
"1476",-4.7,"V36",0.073051045960799,0.0793469909305284,-2.24874731404659
"1477",-4.7,"V37",0.0207926337492208,0.0212439386798542,-0.869789175881536
"1478",-4.7,"V38",0.00145627521377753,0.00145840215061043,1.82895439330989
"1479",-4.7,"V39",0.000142437599616224,0.00014245789386775,4.15632161550674
"1480",-4.7,"V40",0.0868083481833714,0.0960301350142208,-2.45786602396384
"1481",-4.7,"V41",0.00225014189265752,0.00225522794574479,1.39224645174654
"1482",-4.7,"V42",0.0183386306736722,0.0186878670484944,-0.738983905051686
"1483",-4.7,"V43",0.00748450567420815,0.00754137805720992,0.179780389426151
"1484",-4.7,"V44",0.00319279664267333,0.00320305621176909,1.04044166180745
"1485",-4.7,"V45",0.0560835387544656,0.0596405317862072,-1.94207319130362
"1486",-4.7,"V46",0.0226617097098838,0.0231999472628845,-0.95986802873198
"1487",-4.7,"V47",0.0476940203071387,0.0502156297814904,-1.76009134835349
"1488",-4.7,"V48",0.0236772827627817,0.0242661277171676,-1.00589157944051
"1489",-4.7,"V49",0.0248198032419004,0.0254684449290021,-1.05548333291734
"1490",-4.7,"V50",0.049316927894437,0.0520233576339464,-1.79736293989902
"1491",-4.7,"V51",0.132766563292014,0.157606313276682,-3.02385276908498
"1492",-4.7,"V52",0.0106688558528842,0.0107851758714626,-0.181261065239454
"1493",-4.7,"V53",0.0581683481981196,0.0620140963434093,-1.98362679877156
"1494",-4.7,"V54",0.0955352714757326,0.106979989664308,-2.57803281587365
"1495",-4.7,"V55",0.00927061898168469,0.00935819479143921,-0.0378993865561951
"1496",-4.7,"V56",0.020315783535422,0.0207461878455446,-0.845571646040253
"1497",-4.7,"V57",0.0322290831205207,0.0333406843536934,-1.33293228084376
"1498",-4.7,"V58",0.0159343632150702,0.0161966961822916,-0.593381299498677
"1499",-4.7,"V59",0.0508860560117864,0.0537781448783424,-1.83239009489464
"1500",-4.7,"V60",0.0265267779734087,0.0272704557290804,-1.12569782557463
"1501",-4.7,"V61",0.0827350487309672,0.0910196199460996,-2.39875157723556
"1502",-4.7,"V62",0.00150350817971123,0.00150577553968715,1.79694029438603
"1503",-4.7,"V63",0.0068308139679438,0.00687812253758584,0.272507665406372
"1504",-4.7,"V64",0.038735862959505,0.0403652134134155,-1.53141557848288
"1505",-4.7,"V65",0.0172507868598888,0.017559109174905,-0.67553267663813
"1506",-4.7,"V66",0.000612935385351824,0.000613311536392496,2.69602403546251
"1507",-4.7,"V67",0.173859796563468,0.224064856467082,-3.45786660897764
"1508",-4.7,"V68",0.141538066625604,0.170664406153243,-3.11907420020112
"1509",-4.7,"V69",0.00334906916840138,0.0033603611957674,0.992340792154458
"1510",-4.7,"V70",0.00237428679032428,0.00237995095688144,1.33829261032173
"1511",-4.7,"V71",0.0699734502008934,0.075704643203456,-2.19780782468689
"1512",-4.7,"V72",0.0435457960963035,0.0456276814068704,-1.65946071436295
"1513",-4.7,"V73",0.141561274772265,0.170699642836915,-3.11932313531716
"1514",-4.7,"V74",0.0955018402736591,0.106937460794925,-2.57758757390686
"1515",-4.7,"V75",0.0100599246863202,0.0101632156384335,-0.121234826664866
"1516",-4.7,"V76",0.00753486088415775,0.00759250704742291,0.172971955978446
"1517",-4.7,"V77",0.033038364285618,0.0342085920560771,-1.35952896513552
"1518",-4.7,"V78",0.00105635317417729,0.00105747141998137,2.15081664249403
"1519",-4.7,"V79",0.0730275808752084,0.0793191005942965,-2.24836546028706
"1520",-4.7,"V80",0.187042839430202,0.249087344739653,-3.59651427662188
"1521",-4.6,"V1",0.0193526334625459,0.0197423956484873,-0.694952988041792
"1522",-4.6,"V2",0.0305376770711174,0.0315319403322329,-1.17528550777643
"1523",-4.6,"V3",0.0573483919691031,0.0610790412490001,-1.86743748390225
"1524",-4.6,"V4",0.0223949722271126,0.0229203129739357,-0.847455335120406
"1525",-4.6,"V5",0.0238654203408689,0.0244639028852477,-0.914211516394273
"1526",-4.6,"V6",0.0201837216558494,0.0206084290017704,-0.738768634009751
"1527",-4.6,"V7",0.0681835885069093,0.0736006431840092,-2.06734835207458
"1528",-4.6,"V8",0.134010501330555,0.159427689514481,-2.93750748030197
"1529",-4.6,"V9",0.0450990353691399,0.0473401225745094,-1.59810025008907
"1530",-4.6,"V10",0.0328235699204279,0.0339780798293152,-1.25252908015508
"1531",-4.6,"V11",0.103267371712166,0.116943048244998,-2.57829735260356
"1532",-4.6,"V12",0.0506567925967099,0.0535213248056632,-1.72733172875683
"1533",-4.6,"V13",0.00875207212476232,0.00883004176228604,0.120726277183337
"1534",-4.6,"V14",0.011545262274665,0.01168172497301,-0.162020865953684
"1535",-4.6,"V15",0.0113098702887097,0.0114407613080167,-0.140933962963528
"1536",-4.6,"V16",0.0119846985148587,0.0121318810527364,-0.200287579363619
"1537",-4.6,"V17",0.0328687634652619,0.0340265709992274,-1.2540053917575
"1538",-4.6,"V18",0.010146669334505,0.0102517680833396,-0.0299995870535039
"1539",-4.6,"V19",0.0142063435017632,0.0144141100708992,-0.374971316409024
"1540",-4.6,"V20",0.0982889979073244,0.110499034542049,-2.51434619124433
"1541",-4.6,"V21",0.0214901336608885,0.0219729439256482,-0.804274540595885
"1542",-4.6,"V22",0.0210500625853349,0.0215128659883684,-0.782643536151985
"1543",-4.6,"V23",0.0611999093642082,0.0654886760557421,-1.94185349857722
"1544",-4.6,"V24",0.0210460666560806,0.0215086904196489,-0.782445153602013
"1545",-4.6,"V25",0.0147312977875428,0.0149549482651563,-0.412354854780223
"1546",-4.6,"V26",0.0144339626428577,0.0146485424384281,-0.391342451018105
"1547",-4.6,"V27",0.0113370752478427,0.0114686041284989,-0.143392822902256
"1548",-4.6,"V28",0.00909296898149788,0.00917718979401322,0.0818146842478843
"1549",-4.6,"V29",0.0764051162565519,0.0833528066295801,-2.20235962327933
"1550",-4.6,"V30",0.0437313685378832,0.0458319347839208,-1.56414128924564
"1551",-4.6,"V31",0.0285087960958278,0.0293714799290504,-1.10208031258256
"1552",-4.6,"V32",0.0266255904386377,0.0273749799668216,-1.02963083379668
"1553",-4.6,"V33",0.0402959928652814,0.0420654990779592,-1.47444850039087
"1554",-4.6,"V34",0.0096084171521976,0.00970255675987622,0.0256159114508497
"1555",-4.6,"V35",0.053865343427993,0.0571290745916966,-1.7963837776056
"1556",-4.6,"V36",0.0794031244863431,0.0869662537834749,-2.24874731404659
"1557",-4.6,"V37",0.022877073975954,0.0234258441500987,-0.869789175881536
"1558",-4.6,"V38",0.00160893941407031,0.00161153646384461,1.82895439330989
"1559",-4.6,"V39",0.000157413175838035,0.000157437962550087,4.15632161550674
"1560",-4.6,"V40",0.094029161152697,0.105068564371861,-2.45786602396384
"1561",-4.6,"V41",0.00248561214465897,0.00249182131814051,1.39224645174654
"1562",-4.6,"V42",0.0201878879516575,0.0206127744209881,-0.738983905051686
"1563",-4.6,"V43",0.0082585525402705,0.00832790656807712,0.179780389426151
"1564",-4.6,"V44",0.00352620985957478,0.00353873248719068,1.04044166180745
"1565",-4.6,"V45",0.0612115944603497,0.0655021225142172,-1.94207319130362
"1566",-4.6,"V46",0.0249232904953895,0.025577498947815,-0.95986802873198
"1567",-4.6,"V47",0.0521576767264896,0.0552053021072414,-1.76009134835349
"1568",-4.6,"V48",0.0260343904983919,0.0267499503416739,-1.00589157944051
"1569",-4.6,"V49",0.0272837676741881,0.0280717932504862,-1.05548333291734
"1570",-4.6,"V50",0.0539120775126848,0.0571818403821776,-1.79736293989902
"1571",-4.6,"V51",0.141983800947672,0.171341820347754,-3.02385276908498
"1572",-4.6,"V52",0.0117642061132998,0.0119059579479583,-0.181261065239454
"1573",-4.6,"V53",0.0634555433495579,0.0680920738740234,-1.98362679877156
"1574",-4.6,"V54",0.103246444377274,0.116915733000263,-2.57803281587365
"1575",-4.6,"V55",0.010225480546865,0.0103322356401894,-0.0378993865561951
"1576",-4.6,"V56",0.022354755232531,0.0228781656982474,-0.845571646040253
"1577",-4.6,"V57",0.0353701616445924,0.0367184027447155,-1.33293228084376
"1578",-4.6,"V58",0.0175503526057978,0.0178696779975333,-0.593381299498677
"1579",-4.6,"V59",0.055606995554068,0.0590997794898124,-1.83239009489464
"1580",-4.6,"V60",0.0291491806602268,0.0300523227637217,-1.12569782557463
"1581",-4.6,"V61",0.089710618351572,0.0996384363498064,-2.39875157723556
"1582",-4.6,"V62",0.00166110735511426,0.00166387583791826,1.79694029438603
"1583",-4.6,"V63",0.00753830690183413,0.00759600621221007,0.272507665406372
"1584",-4.6,"V64",0.0424485748837598,0.0444218781413661,-1.53141557848288
"1585",-4.6,"V65",0.0189948473137649,0.019370045995638,-0.67553267663813
"1586",-4.6,"V66",0.000677310983178344,0.00067777035583359,2.69602403546251
"1587",-4.6,"V67",0.183399298669926,0.241928883192881,-3.45786660897764
"1588",-4.6,"V68",0.150956120031389,0.185287623426388,-3.11907420020112
"1589",-4.6,"V69",0.00369867906842899,0.00371246143836031,0.992340792154458
"1590",-4.6,"V70",0.00262267962556898,0.00262959439223666,1.33829261032173
"1591",-4.6,"V71",0.0761157411264965,0.0830056848427026,-2.19780782468689
"1592",-4.6,"V72",0.0476669703242273,0.05018556084117,-1.65946071436295
"1593",-4.6,"V73",0.15097977317123,0.185325204649674,-3.11932313531716
"1594",-4.6,"V74",0.103211227772417,0.116869771190548,-2.57758757390686
"1595",-4.6,"V75",0.0110942068917424,0.0112200974791848,-0.121234826664866
"1596",-4.6,"V76",0.00831402613813175,0.00838432301047574,0.172971955978446
"1597",-4.6,"V77",0.0362517209662236,0.037670810964983,-1.35952896513552
"1598",-4.6,"V78",0.00116719117398758,0.00116855669874577,2.15081664249403
"1599",-4.6,"V79",0.0793780808357127,0.0869359381835703,-2.24836546028706
"1600",-4.6,"V80",0.196295014530197,0.26825663877944,-3.59651427662188
"1601",-4.5,"V1",0.0212994267645606,0.0217735126162088,-0.694952988041792
"1602",-4.5,"V2",0.0335266190575179,0.0347330003723861,-1.17528550777643
"1603",-4.5,"V3",0.0625732840813184,0.0670719275460627,-1.86743748390225
"1604",-4.5,"V4",0.0246313785329753,0.0252699488477429,-0.847455335120406
"1605",-4.5,"V5",0.0262401686105972,0.0269674098020277,-0.914211516394273
"1606",-4.5,"V6",0.0222100812683709,0.0227265786452915,-0.738768634009751
"1607",-4.5,"V7",0.0742013403433117,0.0807164925057411,-2.06734835207458
"1608",-4.5,"V8",0.143260103839822,0.173289277555545,-2.93750748030197
"1609",-4.5,"V9",0.0493495158740564,0.0520597315199898,-1.59810025008907
"1610",-4.5,"V10",0.0360177754956191,0.0374178726924473,-1.25252908015508
"1611",-4.5,"V11",0.111371725854355,0.127671819296947,-2.57829735260356
"1612",-4.5,"V12",0.0553594359482831,0.0588191254692505,-1.72733172875683
"1613",-4.5,"V13",0.00965459551607588,0.00974965121488784,0.120726277183337
"1614",-4.5,"V14",0.0127281937445256,0.0128944608655385,-0.162020865953684
"1615",-4.5,"V15",0.0124693146366961,0.0126288012579078,-0.140933962963528
"1616",-4.5,"V16",0.0132114053318846,0.0133907166235776,-0.200287579363619
"1617",-4.5,"V17",0.0360670004581676,0.0374710824804223,-1.2540053917575
"1618",-4.5,"V18",0.0111896617410447,0.0113177532803598,-0.0299995870535039
"1619",-4.5,"V19",0.0156529437090397,0.0159059427229454,-0.374971316409024
"1620",-4.5,"V20",0.106144730447347,0.120717427828996,-2.51434619124433
"1621",-4.5,"V21",0.023640880382242,0.0242278700703897,-0.804274540595885
