"","theta","item","info","prob","diff"
"1",-6,"V1",0.00108072904143547,0.00108189954806758,0.82795445676805
"2",-6,"V2",0.00927911194849809,0.00936684982412581,-1.33883255731887
"3",-6,"V3",0.00103351898990218,0.00103458936505646,0.87271555480607
"4",-6,"V4",0.0119046642349543,0.0120498634439727,-1.59342110002064
"5",-6,"V5",0.00142220206765851,0.00142423050017614,0.552698365309909
"6",-6,"V6",0.0285111901227249,0.0293740233717702,-2.50216952490582
"7",-6,"V7",0.00276579172261184,0.00277348393575372,-0.115126326634386
"8",-6,"V8",0.00526720344453125,0.00529524304342014,-0.764362912101745
"9",-6,"V9",0.000722911296396535,0.000723434654095281,1.23077663866211
"10",-6,"V10",0.010460989480692,0.0105727730098089,-1.46115589556288
"11",-6,"V11",0.0015478561847778,0.00155025948926184,0.467781487251019
"12",-6,"V12",0.0283879322798293,0.0292430906293879,-2.49756724182968
"13",-6,"V13",0.00784199529629324,0.0079044760377242,-1.16760978911115
"14",-6,"V14",0.00108387093922064,0.00108504826896663,0.825045168092404
"15",-6,"V15",0.00154807593123755,0.00155047991921744,0.467639087516328
"16",-6,"V16",0.00552234753274873,0.00555318540084489,-0.812185091886814
"17",-6,"V17",0.00503406730805386,0.0050596675437067,-0.718618010336219
"18",-6,"V18",0.000803751780095481,0.000804398837585389,1.12461062259726
"19",-6,"V19",0.00254595012492115,0.00255246520353642,-0.0318600879712875
"20",-6,"V20",0.00480337375654135,0.00482667050470232,-0.671239970977042
"21",-6,"V21",0.000847701007639457,0.000848420825536661,1.07128500779965
"22",-6,"V22",0.00459513169831631,0.00461644324656507,-0.626496401495401
"23",-6,"V23",0.0027635781400021,0.00277125801096544,-0.114321198758395
"24",-6,"V24",0.0834102056035598,0.091845869313515,-3.70869772691176
"25",-6,"V25",0.00927575523712098,0.0093634290405178,-1.33846383642096
"26",-6,"V26",0.00124228523650327,0.00124383235543169,0.688313449704204
"27",-6,"V27",0.00129996579742708,0.00130166011648593,0.642812308508473
"28",-6,"V28",0.00743820371917264,0.007494369290231,-1.11391929147287
"29",-6,"V29",0.00182913301603626,0.00183249103944591,0.300244841907862
"30",-6,"V30",0.00354485928588321,0.00355751520028345,-0.36487090293918
"31",-6,"V31",0.00339781852938759,0.00340944282979724,-0.322208874166529
"32",-6,"V32",0.00386255700523928,0.00387759273062386,-0.45134438193912
"33",-6,"V33",0.00458895704631217,0.00461021109263079,-0.625139238027627
"34",-6,"V34",0.00783983615444594,0.00790228221871008,-1.16732999793565
"35",-6,"V35",0.00876386745260585,0.00884204928822118,-1.28064476291008
"36",-6,"V36",0.00421173712716172,0.00422962687062644,-0.538597096976455
"37",-6,"V37",0.0253275665586131,0.0260037622075605,-2.37683378684522
"38",-6,"V38",0.0048128367227946,0.00483622580281037,-0.673227302927135
"39",-6,"V39",0.00198875659405324,0.00199272755717034,0.216256231279751
"40",-6,"V40",0.00526615350586025,0.00529418186750649,-0.764161423455317
"41",-6,"V41",0.00103274151097173,0.00103381027465571,0.873469661499894
"42",-6,"V42",0.00225164275579954,0.00225673561141938,0.0915766437268598
"43",-6,"V43",0.0111527800378003,0.011280018863358,-1.52662176014911
"44",-6,"V44",0.00244424394244693,0.00245024765602277,0.00911292101785717
"45",-6,"V45",0.000156766325046653,0.000156790908435621,2.76044063044325
"46",-6,"V46",0.0147524106322119,0.0149767125510487,-1.81383121516109
"47",-6,"V47",0.0322558381532776,0.033369351792317,-2.63382140157402
"48",-6,"V48",0.00168504671833738,0.00168789571026611,0.382583345923531
"49",-6,"V49",0.020669453293374,0.0211153095925638,-2.16358449793119
"50",-6,"V50",0.000502273905037071,0.000502526437857818,1.59535965401608
"51",-6,"V51",0.00154859092830427,0.00155099651850469,0.467305438909344
"52",-6,"V52",0.00439998366534933,0.0044195157851243,-0.582704170944375
"53",-6,"V53",0.00037532062632029,0.000375461597731661,1.88697882957822
"54",-6,"V54",0.0173147350073446,0.0176253893573426,-1.97936772680769
"55",-6,"V55",0.00927569531548754,0.00936336797532895,-1.3384572530879
"56",-6,"V56",0.00108335866054488,0.0010845348764431,0.825518945797471
"57",-6,"V57",0.000502137489340745,0.000502389884937232,1.59563156037276
"58",-6,"V58",0.000261265177265994,0.000261333472449817,2.24945192632264
"59",-6,"V59",0.000682632887550378,0.000683099512494348,1.28818667696205
"60",-6,"V60",0.00579253452217005,0.00582648241955544,-0.860501703309402
"61",-6,"V61",0.00135850500230062,0.0013603555695763,0.598647883494726
"62",-6,"V62",0.000608830560109282,0.000609201686804487,1.40275178073697
"63",-6,"V63",0.00265290611732421,0.0026599816195405,-0.0732274594971757
"64",-6,"V64",0.0173016786752748,0.0176118561524079,-1.97858583150932
"65",-6,"V65",0.000644470112916207,0.000644885990857412,1.34579192113344
"66",-6,"V66",0.0038605664744537,0.00387558664630673,-0.450824881152559
"67",-6,"V67",0.0147400235071592,0.0149639431002672,-1.81296526754561
"68",-6,"V68",0.000983743137786788,0.00098471279707952,0.922175337932673
"69",-6,"V69",0.00354782542606767,0.00356050260486693,-0.365713293339348
"70",-6,"V70",0.00265055943654277,0.00265762239332829,-0.0723377671473736
"71",-6,"V71",0.000644632341765231,0.000645048429241298,1.34553990332965
"72",-6,"V72",0.0118926278231026,0.0120375299504096,-1.5923845539667
"73",-6,"V73",0.0227791712822806,0.0233231401486754,-2.26529015716672
"74",-6,"V74",0.0188328787536579,0.0192015794053166,-2.06662558148696
"75",-6,"V75",0.0050269230498359,0.00505245030390937,-0.717183312410626
"76",-6,"V76",0.000345167454913666,0.000345286677803534,1.97079018952272
"77",-6,"V77",0.00124368111156275,0.00124523171358327,0.687187643396035
"78",-6,"V78",0.00783851336778706,0.00790093819210248,-1.16715854792316
"79",-6,"V79",0.00312493827967948,0.00313476503148208,-0.23793863090816
"80",-6,"V80",0.010468853146731,0.0105808066153627,-1.46192356554172
"81",-6,"V81",0.00300044926602737,0.00300950639476752,-0.197034841947265
"82",-6,"V82",0.00312612314620382,0.00313595737486077,-0.238320116006974
"83",-6,"V83",0.0322193966445491,0.0333303059385033,-2.63261021226122
"84",-6,"V84",0.0434434370552802,0.0455150575159615,-2.95687133787729
"85",-6,"V85",0.0111368906825147,0.0112637630403438,-1.52516316294437
"86",-6,"V86",0.0147565140411709,0.0149809426848992,-1.81411791716217
"87",-6,"V87",0.0028749777319982,0.00288329109956302,-0.154064561426484
"88",-6,"V88",0.000721999631668399,0.000722521669230907,1.23204036359853
"89",-6,"V89",0.0005372948994685,0.000537583895913646,1.52788799627584
"90",-6,"V90",0.0008917442256175,0.000892540854794979,1.02054533027096
"91",-6,"V91",0.000572156538389376,0.000572484276636372,1.46495263909532
"92",-6,"V92",0.00234713569886044,0.00235267075855861,0.0498486605048842
"93",-6,"V93",0.00190940503417771,0.001913064851303,0.25713379168637
"94",-6,"V94",0.00312605782879767,0.00313589164520816,-0.23829908985534
"95",-6,"V95",0.00403186923850796,0.00404825762833332,-0.494587768346265
"96",-6,"V96",0.00190873947379598,0.00191239673506828,0.257483760756462
"97",-6,"V97",0.00206973859473408,0.00207404023764143,0.176180574341046
"98",-6,"V98",6.40733985151051e-05,6.40775044416805e-05,3.65535312082325
"99",-6,"V99",0.00040523018514406,0.000405394529868908,1.8102443404829
"100",-5.9,"V1",0.00119411854740391,0.00119554788214241,0.82795445676805
"101",-5.9,"V2",0.010234829663739,0.010341782121181,-1.33883255731887
"102",-5.9,"V3",0.00114196660556459,0.00114327368027259,0.87271555480607
"103",-5.9,"V4",0.013123405168467,0.0133003032345993,-1.59342110002064
"104",-5.9,"V5",0.001571305605266,0.0015737823962969,0.552698365309909
"105",-5.9,"V6",0.0313159509955925,0.0323633365481194,-2.50216952490582
"106",-5.9,"V7",0.00305489015645187,0.00306427996817523,-0.115126326634386
"107",-5.9,"V8",0.0058146818056986,0.00584889133555372,-0.764362912101745
"108",-5.9,"V9",0.000798818981356736,0.00079945811463379,1.23077663866211
"109",-5.9,"V10",0.0115355132980023,0.0116717428798557,-1.46115589556288
"110",-5.9,"V11",0.00171008796226696,0.0017130224080374,0.467781487251019
"111",-5.9,"V12",0.0311814238866061,0.0322195214490092,-2.49756724182968
"112",-5.9,"V13",0.00865235339536949,0.00872854082021974,-1.16760978911115
"113",-5.9,"V14",0.00119758929832127,0.00119902696398163,0.825045168092404
"114",-5.9,"V15",0.00171033066120332,0.00171326594138925,0.467639087516328
"115",-5.9,"V16",0.00609601525782194,0.00613363675769731,-0.812185091886814
"116",-5.9,"V17",0.00555758849698936,0.00558882344448296,-0.718618010336219
"117",-5.9,"V18",0.000888132815413542,0.000888922999512604,1.12461062259726
"118",-5.9,"V19",0.00281219999161348,0.00282015325600081,-0.0318600879712875
"119",-5.9,"V20",0.00530316357711224,0.00533158942288647,-0.671239970977042
"120",-5.9,"V21",0.00093668733369128,0.000937566364378895,1.07128500779965
"121",-5.9,"V22",0.00507347821637747,0.00509948294265995,-0.626496401495401
"122",-5.9,"V23",0.00305244662462942,0.00306182137476036,-0.114321198758395
"123",-5.9,"V24",0.0904271317284146,0.10053427146802,-3.70869772691176
"124",-5.9,"V25",0.0102311345766395,0.0103380090068655,-1.33846383642096
"125",-5.9,"V26",0.00137257838419254,0.00137446754522542,0.688313449704204
"126",-5.9,"V27",0.00143629111960624,0.00143835999909323,0.642812308508473
"127",-5.9,"V28",0.00820754313237664,0.0082760359026384,-1.11391929147287
"128",-5.9,"V29",0.0020207256518071,0.00202482557039764,0.300244841907862
"129",-5.9,"V30",0.00391474546178443,0.0039301918699188,-0.36487090293918
"130",-5.9,"V31",0.00375247865679204,0.00376666643280809,-0.322208874166529
"131",-5.9,"V32",0.00426530609339265,0.00428365580040903,-0.45134438193912
"132",-5.9,"V33",0.00506666743067302,0.00509260202606894,-0.625139238027627
"133",-5.9,"V34",0.00864997512531258,0.00872612030081691,-1.16732999793565
"134",-5.9,"V35",0.00966758279658774,0.00976289695351265,-1.28064476291008
"135",-5.9,"V36",0.00465055102326153,0.00467238217848334,-0.538597096976455
"136",-5.9,"V37",0.0278388123999942,0.0286602206475611,-2.37683378684522
"137",-5.9,"V38",0.00531360048832243,0.00534213893674189,-0.673227302927135
"138",-5.9,"V39",0.00219699497520804,0.00220184308819307,0.216256231279751
"139",-5.9,"V40",0.00581352403227116,0.00584771985983021,-0.764161423455317
"140",-5.9,"V41",0.00114110773239689,0.00114241283949273,0.873469661499894
"141",-5.9,"V42",0.00248726927980629,0.00249348675600868,0.0915766437268598
"142",-5.9,"V43",0.0122965353515034,0.0124515771243879,-1.52662176014911
"143",-5.9,"V44",0.00269991563416826,0.00270724480862208,0.00911292101785717
"144",-5.9,"V45",0.000173247869667432,0.000173277894896291,2.76044063044325
"145",-5.9,"V46",0.0162526951643511,0.0165257971353085,-1.81383121516109
"146",-5.9,"V47",0.0353993115385276,0.0367498640459213,-2.63382140157402
"147",-5.9,"V48",0.00186160363544044,0.00186508216692984,0.382583345923531
"148",-5.9,"V49",0.0227421587434242,0.023284318218316,-2.16358449793119
"149",-5.9,"V50",0.000555039842198307,0.000555348253881396,1.59535965401608
"150",-5.9,"V51",0.00171089944952902,0.00171383668571432,0.467305438909344
"151",-5.9,"V52",0.00485821669508685,0.00488205111820765,-0.582704170944375
"152",-5.9,"V53",0.000414760684674415,0.0004149328539477,1.88697882957822
"153",-5.9,"V54",0.019064995335283,0.0194430266194059,-1.97936772680769
"154",-5.9,"V55",0.0102310686145136,0.0103379416521162,-1.3384572530879
"155",-5.9,"V56",0.00119702340126834,0.00119845970693749,0.825518945797471
"156",-5.9,"V57",0.000554889111409781,0.000555197355513351,1.59563156037276
"157",-5.9,"V58",0.000288726804473787,0.000288810215814545,2.24945192632264
"158",-5.9,"V59",0.000754317627469384,0.000754887482580741,1.28818667696205
"159",-5.9,"V60",0.00639390222884797,0.00643531551462069,-0.860501703309402
"160",-5.9,"V61",0.00150095070831214,0.00150321034966749,0.598647883494726
"161",-5.9,"V62",0.00067277561643465,0.000673228853523867,1.40275178073697
"162",-5.9,"V63",0.00293027495521013,0.0029389121598937,-0.0732274594971757
"163",-5.9,"V64",0.0190506733328839,0.0194281253890152,-1.97858583150932
"164",-5.9,"V65",0.000712153022020681,0.000712660907589888,1.34579192113344
"165",-5.9,"V66",0.00426310980796639,0.00428144054107314,-0.450824881152559
"166",-5.9,"V67",0.0162390918473579,0.0165117290433592,-1.81296526754561
"167",-5.9,"V68",0.00108697915311245,0.00108816325237627,0.922175337932673
"168",-5.9,"V69",0.0039180186409847,0.00393349099237177,-0.365713293339348
"169",-5.9,"V70",0.002927684374755,0.00293630626926191,-0.0723377671473736
"170",-5.9,"V71",0.000712332263972,0.000712840405415593,1.34553990332965
"171",-5.9,"V72",0.0131101704959953,0.013286707081053,-1.5923845539667
"172",-5.9,"V73",0.0250518268503592,0.0257129844180416,-2.26529015716672
"173",-5.9,"V74",0.020729740109397,0.0211782587532151,-2.06662558148696
"174",-5.9,"V75",0.00554970968733142,0.00558085563697214,-0.717183312410626
"175",-5.9,"V76",0.000381441329123723,0.000381586937714757,1.97079018952272
"176",-5.9,"V77",0.00137412025677067,0.00137601367039178,0.687187643396035
"177",-5.9,"V78",0.00864851808984013,0.00872463738738142,-1.16715854792316
"178",-5.9,"V79",0.00345131483118383,0.00346330934278767,-0.23793863090816
"179",-5.9,"V80",0.0115441652122903,0.0116806016676076,-1.46192356554172
"180",-5.9,"V81",0.00331391114904683,0.00332496655161619,-0.197034841947265
"181",-5.9,"V82",0.00345262258256902,0.00346462621739528,-0.238320116006974
"182",-5.9,"V83",0.0353596080358189,0.0367070128264608,-2.63261021226122
"183",-5.9,"V84",0.0475560452161415,0.0500622767717087,-2.95687133787729
"184",-5.9,"V85",0.0122790584248417,0.0124336541811378,-1.52516316294437
"185",-5.9,"V86",0.0162572014375992,0.0165304574614852,-1.81411791716217
"186",-5.9,"V87",0.00317541567177129,0.00318556348649779,-0.154064561426484
"187",-5.9,"V88",0.000797811742510643,0.000798449263737406,1.23204036359853
"188",-5.9,"V89",0.000593735557955251,0.000594088499100013,1.52788799627584
"189",-5.9,"V90",0.000985344788499888,0.000986317610929517,1.02054533027096
"190",-5.9,"V91",0.000632254630067949,0.000632654882268006,1.46495263909532
"191",-5.9,"V92",0.00259270291826925,0.00259946011113865,0.0498486605048842
"192",-5.9,"V93",0.00210937002383193,0.00211383833634413,0.25713379168637
"193",-5.9,"V94",0.00345255049098207,0.00346455362278723,-0.23829908985534
"194",-5.9,"V95",0.00445211276694097,0.00447211255766943,-0.494587768346265
"195",-5.9,"V96",0.00210863505802402,0.0021131002506935,0.257483760756462
"196",-5.9,"V97",0.00228641732757937,0.00229166907472743,0.176180574341046
"197",-5.9,"V98",7.08111022531716e-05,7.08161171756235e-05,3.65535312082325
"198",-5.9,"V99",0.000447810429498001,0.000448011143482685,1.8102443404829
"199",-5.8,"V1",0.00131937328273701,0.00132111863719054,0.82795445676805
"200",-5.8,"V2",0.0112866707423552,0.0114170190667251,-1.33883255731887
"201",-5.8,"V3",0.0012617648365975,0.00126336091740513,0.87271555480607
"202",-5.8,"V4",0.0144631152800908,0.014678575869652,-1.59342110002064
"203",-5.8,"V5",0.00173598654320926,0.00173901070142894,0.552698365309909
"204",-5.8,"V6",0.0343750764300458,0.0356456917719464,-2.50216952490582
"205",-5.8,"V7",0.00337400070881388,0.00338546206218839,-0.115126326634386
"206",-5.8,"V8",0.00641831855831651,0.00646005081484691,-0.764362912101745
"207",-5.8,"V9",0.000882683069229461,0.000883463577121562,1.23077663866211
"208",-5.8,"V10",0.0127174725539078,0.012883455992211,-1.46115589556288
"209",-5.8,"V11",0.00188925868371234,0.00189284153278056,0.467781487251019
"210",-5.8,"V12",0.0342284398270565,0.035487825592328,-2.49756724182968
"211",-5.8,"V13",0.00954479727089305,0.00963768218886665,-1.16760978911115
"212",-5.8,"V14",0.00132320712310376,0.00132496264912534,0.825045168092404
"213",-5.8,"V15",0.00188952671412424,0.00189311058179916,0.467639087516328
"214",-5.8,"V16",0.00672845519262529,0.00677434696948831,-0.812185091886814
"215",-5.8,"V17",0.00613487113210816,0.00617297677436501,-0.718618010336219
"216",-5.8,"V18",0.000981355058898702,0.000982320011503703,1.12461062259726
"217",-5.8,"V19",0.0031061188353635,0.00311582721459471,-0.0318600879712875
"218",-5.8,"V20",0.00585433493767575,0.00588901544053461,-0.671239970977042
"219",-5.8,"V21",0.00103499547959308,0.00103606891839674,1.07128500779965
"220",-5.8,"V22",0.00560105108594295,0.00563277928845541,-0.626496401495401
"221",-5.8,"V23",0.00337130367116665,0.00338274664603793,-0.114321198758395
"222",-5.8,"V24",0.0978571538272251,0.109945072877197,-3.70869772691176
"223",-5.8,"V25",0.0112826048530371,0.0114128581849878,-1.33846383642096
"224",-5.8,"V26",0.0015164952503503,0.00151880200989557,0.688313449704204
"225",-5.8,"V27",0.00158686703665489,0.00158939320742269,0.642812308508473
"226",-5.8,"V28",0.0090549682609205,0.00913848007907617,-1.11391929147287
"227",-5.8,"V29",0.00223229637518739,0.00223730189495657,0.300244841907862
"228",-5.8,"V30",0.0043228884357326,0.00434173913444417,-0.36487090293918
"229",-5.8,"V31",0.00414384651395843,0.00416116178132882,-0.322208874166529
"230",-5.8,"V32",0.00470964775175841,0.00473203995388356,-0.45134438193912
"231",-5.8,"V33",0.00559354016240936,0.00562518284444278,-0.625139238027627
"232",-5.8,"V34",0.00954217854884245,0.00963501200518246,-1.16732999793565
"233",-5.8,"V35",0.010662424338537,0.0107786026128221,-1.28064476291008
"234",-5.8,"V36",0.00513460622617984,0.00516124467275185,-0.538597096976455
"235",-5.8,"V37",0.0305820061104437,0.0315792554875945,-2.37683378684522
"236",-5.8,"V38",0.00586584357473079,0.00590066137944568,-0.673227302927135
"237",-5.8,"V39",0.00242693081556133,0.00243284957260425,0.216256231279751
"238",-5.8,"V40",0.00641704217376915,0.00645875772512096,-0.764161423455317
"239",-5.8,"V41",0.00126081609144103,0.00126240976986809,0.873469661499894
"240",-5.8,"V42",0.00274741650692217,0.00275500656811251,0.0915766437268598
"241",-5.8,"V43",0.0135542502506244,0.0137431236996482,-1.52662176014911
"242",-5.8,"V44",0.00298216981119657,0.00299111658964945,0.00911292101785717
"243",-5.8,"V45",0.000191461528800007,0.000191498200360748,2.76044063044325
"244",-5.8,"V46",0.0178997313086054,0.0182321423222647,-1.81383121516109
"245",-5.8,"V47",0.0388216172841924,0.0404585081673173,-2.63382140157402
"246",-5.8,"V48",0.00205658331222352,0.00206083033388859,0.382583345923531
"247",-5.8,"V49",0.0250113253460307,0.0256702890878863,-2.16358449793119
"248",-5.8,"V50",0.000613342243548591,0.000613718894429972,1.59535965401608
"249",-5.8,"V51",0.00189015486909414,0.00189374112454092,0.467305438909344
"250",-5.8,"V52",0.00536365046060352,0.0053927320192348,-0.582704170944375
"251",-5.8,"V53",0.000458341442785933,0.000458551712458932,1.88697882957822
"252",-5.8,"V54",0.0209841720660262,0.021444017972846,-1.97936772680769
"253",-5.8,"V55",0.0112825322715486,0.0114127839080812,-1.3384572530879
"254",-5.8,"V56",0.00132258202562881,0.00132433589118148,0.825518945797471
"255",-5.8,"V57",0.000613175699183245,0.000613552145418393,1.59563156037276
"256",-5.8,"V58",0.000319073083949317,0.000319174956602239,2.24945192632264
"257",-5.8,"V59",0.00083351755001717,0.000834213462117548,1.28818667696205
"258",-5.8,"V60",0.0070567993667328,0.00710731326863126,-0.860501703309402
"259",-5.8,"V61",0.00165828270171251,0.00166104176144578,0.598647883494726
"260",-5.8,"V62",0.000743426766625831,0.00074398027327285,1.40275178073697
"261",-5.8,"V63",0.0032364536547106,0.00324699664190313,-0.0732274594971757
"262",-5.8,"V64",0.0209684739284378,0.0214276166852477,-1.97858583150932
"263",-5.8,"V65",0.000786932841611573,0.000787553081467702,1.34579192113344
"264",-5.8,"V66",0.00470722485894777,0.00472959391757292,-0.450824881152559
"265",-5.8,"V67",0.0178848022727035,0.0182166485573661,-1.81296526754561
"266",-5.8,"V68",0.00120102283522353,0.0012024687663576,0.922175337932673
"267",-5.8,"V69",0.00432649986847666,0.00434538221507172,-0.365713293339348
"268",-5.8,"V70",0.00323359416144497,0.00324411846606685,-0.0723377671473736
"269",-5.8,"V71",0.000787130875195583,0.000787751427507123,1.34553990332965
"270",-5.8,"V72",0.0144485708015741,0.0146635917238169,-1.5923845539667
"271",-5.8,"V73",0.0275374125520733,0.0283406022902473,-2.26529015716672
"272",-5.8,"V74",0.0228081897101926,0.023353579380053,-2.06662558148696
"273",-5.8,"V75",0.00612618418914869,0.0061641813205007,-0.717183312410626
"274",-5.8,"V76",0.000421524030143679,0.000421701862604604,1.97079018952272
"275",-5.8,"V77",0.00151819829687105,0.0015205102482862,0.687187643396035
"276",-5.8,"V78",0.00954057420030825,0.00963337613608759,-1.16715854792316
"277",-5.8,"V79",0.00381151566633704,0.00382615512941136,-0.23793863090816
"278",-5.8,"V80",0.0127269872801882,0.0128932224657393,-1.46192356554172
"279",-5.8,"V81",0.00365987813547732,0.0036733717958277,-0.197034841947265
"280",-5.8,"V82",0.0038129588470671,0.00382760944110071,-0.238320116006974
"281",-5.8,"V83",0.0387784235377597,0.0404115140016666,-2.63261021226122
"282",-5.8,"V84",0.0520084574115672,0.0550375941852696,-2.95687133787729
"283",-5.8,"V85",0.0135350367075566,0.0137233675237484,-1.52516316294437
"284",-5.8,"V86",0.0179046767234428,0.0182372749199486,-1.81411791716217
"285",-5.8,"V87",0.00350702675081917,0.00351941301881619,-0.154064561426484
"286",-5.8,"V88",0.00088157027237248,0.000882348811798162,1.23204036359853
"287",-5.8,"V89",0.000656097282108996,0.00065652831153284,1.52788799627584
"288",-5.8,"V90",0.00108874851684526,0.00108993647837214,1.02054533027096
"289",-5.8,"V91",0.000698656454014757,0.00069914525810669,1.46495263909532
"290",-5.8,"V92",0.00286381378804403,0.00287206253122731,0.0498486605048842
"291",-5.8,"V93",0.00233017822666479,0.00233563341009112,0.25713379168637
"292",-5.8,"V94",0.00381287928977284,0.00382752927008621,-0.23829908985534
"293",-5.8,"V95",0.00491572038425119,0.00494012522145485,-0.494587768346265
"294",-5.8,"V96",0.00232936668641748,0.00233481806179919,0.257483760756462
"295",-5.8,"V97",0.00252566433452988,0.00253207574209358,0.176180574341046
"296",-5.8,"V98",7.82572051953367e-05,7.82633303442133e-05,3.65535312082325
"297",-5.8,"V99",0.000494860428980232,0.000495105558494284,1.8102443404829
"298",-5.7,"V1",0.00145772787110008,0.0014598590595739,0.82795445676805
"299",-5.7,"V2",0.0124437988315935,0.0126026249881864,-1.33883255731887
"300",-5.7,"V3",0.00139409531462661,0.00139604425418626,0.87271555480607
"301",-5.7,"V4",0.0159349768786985,0.0161973303904767,-1.59342110002064
"302",-5.7,"V5",0.00191786024979361,0.00192155261424291,0.552698365309909
"303",-5.7,"V6",0.0377070853945888,0.039247447532397,-2.50216952490582
"304",-5.7,"V7",0.00372619355009304,0.00374018251534111,-0.115126326634386
"305",-5.7,"V8",0.00708371026403229,0.0071346129662099,-0.764362912101745
"306",-5.7,"V9",0.000975334403810705,0.000976287541173756,1.23077663866211
"307",-5.7,"V10",0.0140169700790561,0.0142191544318118,-1.46115589556288
"308",-5.7,"V11",0.00208712269636357,0.00209149705630008,0.467781487251019
"309",-5.7,"V12",0.0375474772951622,0.0390742763689167,-2.49756724182968
"310",-5.7,"V13",0.0105272805621363,0.0106405008198332,-1.16760978911115
"311",-5.7,"V14",0.00146196256088914,0.00146410616775961,0.825045168092404
"312",-5.7,"V15",0.00208741867976902,0.0020917942830918,0.467639087516328
"313",-5.7,"V16",0.00742550841407426,0.00748148097160271,-0.812185091886814
"314",-5.7,"V17",0.00677128623050229,0.00681776819364456,-0.718618010336219
"315",-5.7,"V18",0.0010843410100408,0.00108551936232679,1.12461062259726
"316",-5.7,"V19",0.00343054349670103,0.00344239357019314,-0.0318600879712875
"317",-5.7,"V20",0.0064620336770066,0.00650434011736901,-0.671239970977042
"318",-5.7,"V21",0.00114359766812483,0.00114490848356056,1.07128500779965
"319",-5.7,"V22",0.00618279117355001,0.00622149821357148,-0.626496401495401
"320",-5.7,"V23",0.00372321710976415,0.00373718365140851,-0.114321198758395
"321",-5.7,"V24",0.105690544673981,0.120119156410831,-3.70869772691176
"322",-5.7,"V25",0.0124393269745336,0.0125980375239895,-1.33846383642096
"323",-5.7,"V26",0.00167545115297342,0.00167826773556566,0.688313449704204
"324",-5.7,"V27",0.00175317313714711,0.00175625757782678,0.642812308508473
"325",-5.7,"V28",0.00998807922727218,0.010089885006721,-1.11391929147287
"326",-5.7,"V29",0.00246590844580825,0.00247201932535317,0.300244841907862
"327",-5.7,"V30",0.00477317049102266,0.00479617377389203,-0.36487090293918
"328",-5.7,"V31",0.00457565286459965,0.00459678328113336,-0.322208874166529
"329",-5.7,"V32",0.00519978885285509,0.00522711154799022,-0.45134438193912
"330",-5.7,"V33",0.00617451000558388,0.00621311277595056,-0.625139238027627
"331",-5.7,"V34",0.0105243981898452,0.0106375557828791,-1.16732999793565
"332",-5.7,"V35",0.0117571305254895,0.0118987098208913,-1.28064476291008
"333",-5.7,"V36",0.00566846197885802,0.00570096295750082,-0.538597096976455
"334",-5.7,"V37",0.0335749538523172,0.0347849463445075,-2.37683378684522
"335",-5.7,"V38",0.00647472109664046,0.00651719492634848,-0.673227302927135
"336",-5.7,"V39",0.00268080133544502,0.00268802682364968,0.216256231279751
"337",-5.7,"V40",0.00708230348079386,0.00713318582074717,-0.764161423455317
"338",-5.7,"V41",0.00139304734631275,0.00139499335276702,0.873469661499894
"339",-5.7,"V42",0.00303460603514644,0.00304387118694918,0.0915766437268598
"340",-5.7,"V43",0.0149365540875536,0.0151665792125646,-1.52662176014911
"341",-5.7,"V44",0.00329373474602547,0.00330465549395922,0.00911292101785717
"342",-5.7,"V45",0.000211589190644067,0.000211633979585382,2.76044063044325
"343",-5.7,"V46",0.019706615505382,0.0201110706688286,-1.81383121516109
"344",-5.7,"V47",0.042541717188911,0.0445241139082234,-2.63382140157402
"345",-5.7,"V48",0.00227189114381531,0.00227707621992667,0.382583345923531
"346",-5.7,"V49",0.0274931388187487,0.028293670615656,-2.16358449793119
"347",-5.7,"V50",0.000677760514954165,0.000678220497998069,1.59535965401608
"348",-5.7,"V51",0.00208811234512803,0.00209249086314035,0.467305438909344
"349",-5.7,"V52",0.00592103227069165,0.0059565123095859,-0.582704170944375
"350",-5.7,"V53",0.000506496779001977,0.000506753578190986,1.88697882957822
"351",-5.7,"V54",0.0230868443576424,0.0236459765653726,-1.97936772680769
"352",-5.7,"V55",0.0124392471459134,0.0125979556320198,-1.3384572530879
"353",-5.7,"V56",0.00146127210644985,0.00146341368606642,0.825518945797471
"354",-5.7,"V57",0.000677576502487141,0.00067803623562396,1.59563156037276
"355",-5.7,"V58",0.000352606620180275,0.000352731039366408,2.24945192632264
"356",-5.7,"V59",0.000921017737920651,0.000921867577751561,1.28818667696205
"357",-5.7,"V60",0.00778732330549311,0.00784892899181161,-0.860501703309402
"358",-5.7,"V61",0.00183204566781134,0.00183541441388203,0.598647883494726
"359",-5.7,"V62",0.000821485082818707,0.000822161031580556,1.40275178073697
"360",-5.7,"V63",0.00357439280399228,0.00358726124724829,-0.0732274594971757
"361",-5.7,"V64",0.0230696526313965,0.023627931792172,-1.97858583150932
"362",-5.7,"V65",0.000869551239237612,0.000870308676429881,1.34579192113344
"363",-5.7,"V66",0.00519711647804896,0.00522441094780046,-0.450824881152559
"364",-5.7,"V67",0.0196902435088217,0.0200940128617082,-1.81296526754561
"365",-5.7,"V68",0.00132699985081751,0.00132876546848775,0.922175337932673
"366",-5.7,"V69",0.00477715443992565,0.00480019632468113,-0.365713293339348
"367",-5.7,"V70",0.00357123689375149,0.00358408254141517,-0.0723377671473736
"368",-5.7,"V71",0.000869770027660265,0.000870527846391609,1.34553990332965
"369",-5.7,"V72",0.0159190023545463,0.0161808213335754,-1.5923845539667
"370",-5.7,"V73",0.0302529345173872,0.0312281306620322,-2.26529015716672
"371",-5.7,"V74",0.025083580209843,0.0257464604347617,-2.06662558148696
"372",-5.7,"V75",0.00676171062874283,0.00680806031398164,-0.717183312410626
"373",-5.7,"V76",0.00046581477997834,0.000466031965771461,1.97079018952272
"374",-5.7,"V77",0.00167733210672327,0.00168015502764017,0.687187643396035
"375",-5.7,"V78",0.0105226323155376,0.0106357515260617,-1.16715854792316
"376",-5.7,"V79",0.00420898819090014,0.00422685448977789,-0.23793863090816
"377",-5.7,"V80",0.0140274282621147,0.0142299188526683,-1.46192356554172
"378",-5.7,"V81",0.00404166742581834,0.00405813589274231,-0.197034841947265
"379",-5.7,"V82",0.00421058058191169,0.00422846045977155,-0.238320116006974
"380",-5.7,"V83",0.0424948026546972,0.0444726162508967,-2.63261021226122
"381",-5.7,"V84",0.0568185590150016,0.060475892600874,-2.95687133787729
"382",-5.7,"V85",0.0149154429810349,0.0151448081963388,-1.52516316294437
"383",-5.7,"V86",0.0197120388935702,0.0201167213723427,-1.81411791716217
"384",-5.7,"V87",0.00387299634236008,0.00388811377105676,-0.154064561426484
"385",-5.7,"V88",0.000974105029982093,0.000975055763724465,1.23204036359853
"386",-5.7,"V89",0.000724999513082445,0.000725525900915344,1.52788799627584
"387",-5.7,"V90",0.00120297738842632,0.00120442803531858,1.02054533027096
"388",-5.7,"V91",0.000772021257470887,0.000772618196348215,1.46495263909532
"389",-5.7,"V92",0.00316309255337217,0.00317316150732373,0.0498486605048842
"390",-5.7,"V93",0.00257398050593253,0.00258064020982509,0.25713379168637
"391",-5.7,"V94",0.00421049279922385,0.00422837192838863,-0.23829908985534
"392",-5.7,"V95",0.00542707039477569,0.00545684758029021,-0.494587768346265
"393",-5.7,"V96",0.00257308449689616,0.00257973955305777,0.257483760756462
"394",-5.7,"V97",0.00278980471943219,0.00279763146122503,0.176180574341046
"395",-5.7,"V98",8.64861635661307e-05,8.64936447167071e-05,3.65535312082325
"396",-5.7,"V99",0.000546848403567649,0.000547147774254521,1.8102443404829
"397",-5.6,"V1",0.00161054386284874,0.00161314610319901,0.82795445676805
"398",-5.6,"V2",0.0137161409235842,0.0139096184078358,-1.33883255731887
"399",-5.6,"V3",0.00154026127319724,0.00154264101449685,0.87271555480607
"400",-5.6,"V4",0.0175510261670174,0.0178703765241316,-1.59342110002064
"401",-5.6,"V5",0.00211870694134848,0.00212321498321342,0.552698365309909
"402",-5.6,"V6",0.0413308679672145,0.0431968344759578,-2.50216952490582
"403",-5.6,"V7",0.00411484289371897,0.00413191562041319,-0.115126326634386
"404",-5.6,"V8",0.00781697518068797,0.00787905468339185,-0.764362912101745
"405",-5.6,"V9",0.0010776898990742,0.00107885382464916,1.23077663866211
"406",-5.6,"V10",0.0154449192036548,0.0156911307890953,-1.46115589556288
"407",-5.6,"V11",0.00230561288818509,0.00231095339377329,0.467781487251019
"408",-5.6,"V12",0.0411574139605077,0.0430070175161414,-2.49756724182968
"409",-5.6,"V13",0.0116084484246526,0.0117464269712434,-1.16760978911115
"410",-5.6,"V14",0.00161522103935173,0.00161783844057152,0.825045168092404
"411",-5.6,"V15",0.00230593971244435,0.00231128173570616,0.467639087516328
"412",-5.6,"V16",0.00819355693646274,0.00826181451555212,-0.812185091886814
"413",-5.6,"V17",0.00747270845161534,0.0075294003208063,-0.718618010336219
"414",-5.6,"V18",0.00119810856966565,0.00119954748383162,1.12461062259726
"415",-5.6,"V19",0.00378859316695851,0.00380305640497796,-0.0318600879712875
"416",-5.6,"V20",0.00713189096556915,0.00718349354508137,-0.671239970977042
"417",-5.6,"V21",0.00126356657164864,0.00126516721974255,1.07128500779965
"418",-5.6,"V22",0.00682410776624577,0.00687132284387047,-0.626496401495401
"419",-5.6,"V23",0.00411155859728327,0.00412860396800792,-0.114321198758395
"420",-5.6,"V24",0.113909880387607,0.131096056388125,-3.70869772691176
"421",-5.6,"V25",0.0137112250451325,0.0139045618863848,-1.33846383642096
"422",-5.6,"V26",0.00185100640763786,0.00185444537528778,0.688313449704204
"423",-5.6,"V27",0.0019368404026279,0.00194060635565551,0.642812308508473
"424",-5.6,"V28",0.0110151445696139,0.0111392269465814,-1.11391929147287
"425",-5.6,"V29",0.00272383380746558,0.00273129377314078,0.300244841907862
"426",-5.6,"V30",0.00526985145699272,0.00529791940703617,-0.36487090293918
"427",-5.6,"V31",0.00505199254584904,0.00507777635859697,-0.322208874166529
"428",-5.6,"V32",0.00574034229257048,0.00577367764613192,-0.45134438193912
"429",-5.6,"V33",0.00681497963777423,0.00686206760965369,-0.625139238027627
"430",-5.6,"V34",0.0116052772093256,0.0117431794734717,-1.16732999793565
"431",-5.6,"V35",0.0129611792459317,0.0131336726019468,-1.28064476291008
"432",-5.6,"V36",0.0062571138554377,0.00629676308073258,-0.538597096976455
"433",-5.6,"V37",0.0368360501588607,0.0383031840686583,-2.37683378684522
"434",-5.6,"V38",0.00714587426020851,0.00719768087011655,-0.673227302927135
"435",-5.6,"V39",0.00296106923455863,0.00296988947807058,0.216256231279751
"436",-5.6,"V40",0.00781542511968603,0.00787747980780847,-0.764161423455317
"437",-5.6,"V41",0.0015391037692822,0.00154147992965574,0.873469661499894
"438",-5.6,"V42",0.00335161211315023,0.00336292135317789,0.0915766437268598
"439",-5.6,"V43",0.0164549094331906,0.0167349686074841,-1.52662176014911
"440",-5.6,"V44",0.00363761088386662,0.00365094024856521,0.00911292101785717
"441",-5.6,"V45",0.00023383181082788,0.000233886513729184,2.76044063044325
"442",-5.6,"V46",0.0216873395551204,0.0221792590888508,-1.81383121516109
"443",-5.6,"V47",0.0465786252584214,0.0489774121603458,-2.63382140157402
"444",-5.6,"V48",0.00250962585582185,0.00251595588986158,0.382583345923531
"445",-5.6,"V49",0.0302045921421194,0.0311765707029131,-2.16358449793119
"446",-5.6,"V50",0.000748934365149705,0.000749496109567963,1.59535965401608
"447",-5.6,"V51",0.00230670565612724,0.00231205123704999,0.467305438909344
"448",-5.6,"V52",0.00653556167608481,0.00657884284932087,-0.582704170944375
"449",-5.6,"V53",0.000559705848788435,0.000560019470595881,1.88697882957822
"450",-5.6,"V54",0.0253884763259996,0.0260680178823122,-1.97936772680769
"451",-5.6,"V55",0.0137111372900502,0.0139044716211125,-1.3384572530879
"452",-5.6,"V56",0.00161445843925048,0.00161707336551996,0.825518945797471
"453",-5.6,"V57",0.000748731057948502,0.000749292497194855,1.59563156037276
"454",-5.6,"V58",0.0003896616710131,0.000389813625675863,2.24945192632264
"455",-5.6,"V59",0.00101768467290897,0.00101872246837655,1.28818667696205
"456",-5.6,"V60",0.00859213214160563,0.00866725342351303,-0.860501703309402
"457",-5.6,"V61",0.00202394214514994,0.00202805515285295,0.598647883494726
"458",-5.6,"V62",0.000907724439177782,0.000908549902102392,1.40275178073697
"459",-5.6,"V63",0.00394733594814896,0.00396304164724677,-0.0732274594971757
"460",-5.6,"V64",0.0253696667321828,0.0260481741064635,-1.97858583150932
"461",-5.6,"V65",0.000960826842136625,0.000961751808678121,1.34579192113344
"462",-5.6,"V66",0.00573739536354745,0.00577069629932651,-0.450824881152559
"463",-5.6,"V67",0.0216693995841086,0.022160486757435,-1.81296526754561
"464",-5.6,"V68",0.00146615183272099,0.00146830776040024,0.922175337932673
"465",-5.6,"V69",0.00527424550262237,0.00530236052981046,-0.365713293339348
"466",-5.6,"V70",0.00394385339410476,0.00395953128207852,-0.0723377671473736
"467",-5.6,"V71",0.000961068552178622,0.000961993984605038,1.34553990332965
"468",-5.6,"V72",0.0175334923651339,0.0178521931659689,-1.5923845539667
"469",-5.6,"V73",0.0332161222926894,0.0343994440431685,-2.26529015716672
"470",-5.6,"V74",0.0275721227849299,0.0283773995925661,-2.06662558148696
"471",-5.6,"V75",0.0074621561615311,0.0075186868129219,-0.717183312410626
"472",-5.6,"V76",0.000514754487471918,0.000515019732797089,1.97079018952272
"473",-5.6,"V77",0.00185308371388545,0.00185653041908243,0.687187643396035
"474",-5.6,"V78",0.0116033343744807,0.0117411899151032,-1.16715854792316
"475",-5.6,"V79",0.00464751838888062,0.00466932094698659,-0.23793863090816
"476",-5.6,"V80",0.0154564078476658,0.0157029917991086,-1.46192356554172
"477",-5.6,"V81",0.004462922954509,0.0044830204266548,-0.197034841947265
"478",-5.6,"V82",0.00464927511965195,0.00467109424106082,-0.238320116006974
"479",-5.6,"V83",0.0465277605102589,0.0489210274356151,-2.63261021226122
"480",-5.6,"V84",0.0620029948587661,0.0664137858035223,-2.95687133787729
"481",-5.6,"V85",0.0164317274322938,0.0167109844330143,-1.52516316294437
"482",-5.6,"V86",0.0216932823216183,0.022185477744364,-1.81411791716217
"483",-5.6,"V87",0.00427682448009907,0.00429527385761095,-0.154064561426484
"484",-5.6,"V88",0.00107633178867933,0.00107749277936892,1.23204036359853
"485",-5.6,"V89",0.000801126114198617,0.000801768947644023,1.52788799627584
"486",-5.6,"V90",0.00132915887222308,0.00133093024754692,1.02054533027096
"487",-5.6,"V91",0.000853076799397095,0.000853805783713397,1.46495263909532
"488",-5.6,"V92",0.00349342582985732,0.00350571587364404,0.0498486605048842
"489",-5.6,"V93",0.00284314488317791,0.0028512746503094,0.25713379168637
"490",-5.6,"V94",0.00464917827754571,0.00467099648571528,-0.23829908985534
"491",-5.6,"V95",0.00599096195131811,0.00602729017821046,-0.494587768346265
"492",-5.6,"V96",0.00284215571563858,0.0028502798106375,0.257483760756462
"493",-5.6,"V97",0.00308139750036511,0.00309095148142564,0.176180574341046
"494",-5.6,"V98",9.55802538675746e-05,9.55893911992845e-05,3.65535312082325
"495",-5.6,"V99",0.000604291403488238,0.000604657013592324,1.8102443404829
"496",-5.5,"V1",0.00177932244263279,0.00178249974798435,0.82795445676805
"497",-5.5,"V2",0.0151144263057765,0.0153500503515723,-1.33883255731887
"498",-5.5,"V3",0.00170169974974132,0.0017046054294113,0.87271555480607
"499",-5.5,"V4",0.0193241780259612,0.0197127713815005,-1.59342110002064
"500",-5.5,"V5",0.00234048791470101,0.00234599159124722,0.552698365309909
"501",-5.5,"V6",0.0452654525530642,0.0475239813570936,-2.50216952490582
"502",-5.5,"V7",0.00454365488322978,0.00456448944714286,-0.115126326634386
"503",-5.5,"V8",0.0086247938884298,0.00870049245743162,-0.764362912101745
"504",-5.5,"V9",0.0011907613026374,0.0011921826019939,1.23077663866211
"505",-5.5,"V10",0.0170130775199156,0.0173128109426516,-1.46115589556288
"506",-5.5,"V11",0.00254685815917602,0.00255337789786533,0.467781487251019
"507",-5.5,"V12",0.0450772778218185,0.0473160902150581,-2.49756724182968
"508",-5.5,"V13",0.0127976800113972,0.0129657917675568,-1.16760978911115
"509",-5.5,"V14",0.00178448800761541,0.00178768382105949,0.825045168092404
"510",-5.5,"V15",0.002547219004454,0.00255374059548302,0.467639087516328
"511",-5.5,"V16",0.00903956501357452,0.00912279031673768,-0.812185091886814
"512",-5.5,"V17",0.00824555600757191,0.00831469007867635,-0.718618010336219
"513",-5.5,"V18",0.00132378071706427,0.00132553776743718,1.12461062259726
"514",-5.5,"V19",0.00418369560597377,0.0042013469219322,-0.0318600879712875
"515",-5.5,"V20",0.00787006241453453,0.00793299482137042,-0.671239970977042
"516",-5.5,"V21",0.00139608548040952,0.00139803999624061,1.07128500779965
"517",-5.5,"V22",0.00753091687714056,0.00758850224343924,-0.626496401495401
"518",-5.5,"V23",0.00454003148801759,0.00456083268277789,-0.114321198758395
"519",-5.5,"V24",0.122488970987045,0.142913135199633,-3.70869772691176
"520",-5.5,"V25",0.0151090253269138,0.0153444783425178,-1.33846383642096
"521",-5.5,"V26",0.00204488073170663,0.00204907945833319,0.688313449704204
"522",-5.5,"V27",0.00213966620495594,0.00214426407337229,0.642812308508473
"523",-5.5,"V28",0.0121451441432297,0.0122963442245175,-1.11391929147287
"524",-5.5,"V29",0.00300857322002983,0.00301767961026001,0.300244841907862
"525",-5.5,"V30",0.0058176017820035,0.0058518458822329,-0.36487090293918
"526",-5.5,"V31",0.00557735664874688,0.0056088154596068,-0.322208874166529
"527",-5.5,"V32",0.00633636185616579,0.00637702834670041,-0.45134438193912
"528",-5.5,"V33",0.00752085793063542,0.00757828838548906,-0.625139238027627
"529",-5.5,"V34",0.0127941926485309,0.0129622115775111,-1.16732999793565
"530",-5.5,"V35",0.0142848284049012,0.0144949314424217,-1.28064476291008
"531",-5.5,"V36",0.00690603038666084,0.0069543939823222,-0.538597096976455
"532",-5.5,"V37",0.0403841108524604,0.0421617216226459,-2.37683378684522
"533",-5.5,"V38",0.00788546950684537,0.00794865055245034,-0.673227302927135
"534",-5.5,"V39",0.00327044426498973,0.00328121060804407,0.216256231279751
"535",-5.5,"V40",0.0086230864957842,0.00869875483140102,-0.764161423455317
"536",-5.5,"V41",0.00170042134028357,0.00170332264832788,0.873469661499894
"537",-5.5,"V42",0.00370148547903624,0.00371528885027723,0.0915766437268598
"538",-5.5,"V43",0.0181216418898038,0.0184625060182788,-1.52662176014911
"539",-5.5,"V44",0.00401709625696856,0.00403336428441939,0.00911292101785717
"540",-5.5,"V45",0.000258411404053463,0.000258478215041114,2.76044063044325
"541",-5.5,"V46",0.0238567898417787,0.02445482847765,-1.81383121516109
"542",-5.5,"V47",0.0509510920750714,0.0538510249648347,-2.63382140157402
"543",-5.5,"V48",0.00277209829270973,0.00277982572376423,0.382583345923531
"544",-5.5,"V49",0.0331634034069863,0.0343428336286301,-2.16358449793119
"545",-5.5,"V50",0.000827570008036108,0.000828256016064255,1.59535965401608
"546",-5.5,"V51",0.00254806467942879,0.00255459061262692,0.467305438909344
"547",-5.5,"V52",0.00721292795250953,0.00726571861956827,-0.582704170944375
"548",-5.5,"V53",0.000618497768343743,0.000618880781765782,1.88697882957822
"549",-5.5,"V54",0.0279053852809694,0.0287308468411808,-1.97936772680769
"550",-5.5,"V55",0.015108928912027,0.0153443788750893,-1.3384572530879
"551",-5.5,"V56",0.00178364577788191,0.001786838569957,0.825518945797471
"552",-5.5,"V57",0.000827345389678977,0.000828031025057435,1.59563156037276
"553",-5.5,"V58",0.000430607438693368,0.000430793021320587,2.24945192632264
"554",-5.5,"V59",0.00112447453900942,0.00112574183368553,1.28818667696205
"555",-5.5,"V60",0.00947848659518217,0.00957007289030798,-0.860501703309402
"556",-5.5,"V61",0.00223584811804831,0.0022408696146783,0.598647883494726
"557",-5.5,"V62",0.00100299896347333,0.00100400699351636,1.40275178073697
"558",-5.5,"V63",0.00435884663052157,0.00437801363390018,-0.0732274594971757
"559",-5.5,"V64",0.0278848270537691,0.028709035789746,-1.97858583150932
"560",-5.5,"V65",0.00106166310149432,0.00106279262966799,1.34579192113344
"561",-5.5,"V66",0.00633311291668977,0.0063737374457167,-0.450824881152559
"562",-5.5,"V67",0.0238371491855005,0.024434178252369,-1.81296526754561
"563",-5.5,"V68",0.0016198480438983,0.00162248048682844,0.922175337932673
"564",-5.5,"V69",0.0058224471103398,0.0058567486146753,-0.365713293339348
"565",-5.5,"V70",0.00435500423370876,0.00437413731092358,-0.0723377671473736
"566",-5.5,"V71",0.00106193012428289,0.00106306022131703,1.34553990332965
"567",-5.5,"V72",0.0193049465098129,0.0196927509497831,-1.5923845539667
"568",-5.5,"V73",0.0364453101252014,0.0378802212901955,-2.26529015716672
"569",-5.5,"V74",0.0302908338439107,0.0312685564674701,-2.06662558148696
"570",-5.5,"V75",0.00823393091179958,0.00830286853775482,-0.717183312410626
"571",-5.5,"V76",0.000568830066361311,0.000569154002640032,1.97079018952272
"572",-5.5,"V77",0.00204717471725447,0.0020513828890118,0.687187643396035
"573",-5.5,"V78",0.0127920561245348,0.0129600181961801,-1.16715854792316
"574",-5.5,"V79",0.00513126124077585,0.0051578648101759,-0.23793863090816
"575",-5.5,"V80",0.0170256902256148,0.017325876212133,-1.46192356554172
"576",-5.5,"V81",0.00492764495819525,0.00495216893535959,-0.197034841947265
"577",-5.5,"V82",0.00513319890936685,0.00515982267945022,-0.238320116006974
"578",-5.5,"V83",0.0508960530450935,0.0537893468832165,-2.63261021226122
"579",-5.5,"V84",0.0675765920625012,0.0728894663702395,-2.95687133787729
"580",-5.5,"V85",0.0180962028959302,0.0184360923988699,-1.52516316294437
"581",-5.5,"V86",0.0238632959396194,0.0244616691996527,-1.81411791716217
"582",-5.5,"V87",0.00472235454044317,0.00474486831577724,-0.154064561426484
"583",-5.5,"V88",0.00118926103950255,0.00119067875540111,1.23204036359853
"584",-5.5,"V89",0.00088523198639143,0.000886017012537937,1.52788799627584
"585",-5.5,"V90",0.00146853658503482,0.00147069954217819,1.02054533027096
"586",-5.5,"V91",0.000942626374692956,0.000943516598264156,1.46495263909532
"587",-5.5,"V92",0.00385798723233752,0.00387298726267436,0.0498486605048842
"588",-5.5,"V93",0.00314027740104807,0.00315020116844977,0.25713379168637
"589",-5.5,"V94",0.00513309209286191,0.00515971474915456,-0.23829908985534
"590",-5.5,"V95",0.00661265080173016,0.00665696599802908,-0.494587768346265
"591",-5.5,"V96",0.00313918551389126,0.00314910235956226,0.257483760756462
"592",-5.5,"V97",0.00340325789485696,0.00341491957053015,0.176180574341046
"593",-5.5,"V98",0.000105630393054043,0.000105641553191804,3.65535312082325
"594",-5.5,"V99",0.000667760353600043,0.000668206853999775,1.8102443404829
"595",-5.4,"V1",0.00196571833322586,0.00196959764812135,0.82795445676805
"596",-5.4,"V2",0.016650221470371,0.0169370863649032,-1.33883255731887
"597",-5.4,"V3",0.00187999494241047,0.0018835426754206,0.87271555480607
"598",-5.4,"V4",0.0212682410834149,0.0217409081715382,-1.59342110002064
"599",-5.4,"V5",0.00258536324623918,0.00259208213603915,0.552698365309909
"600",-5.4,"V6",0.0495297114943968,0.0522609146996399,-2.50216952490582
"601",-5.4,"V7",0.00501669753580981,0.00504212051509858,-0.115126326634386
"602",-5.4,"V8",0.00951445122979648,0.00960674069660836,-0.764362912101745
"603",-5.4,"V9",0.00131566481751882,0.00131740036123059,1.23077663866211
"604",-5.4,"V10",0.0187340742294974,0.0190988399156199,-1.46115589556288
"605",-5.4,"V11",0.00281320244616687,0.0028211613977993,0.467781487251019
"606",-5.4,"V12",0.0493259558355078,0.0520334340997175,-2.49756724182968
"607",-5.4,"V13",0.0141051293472402,0.0143099026614195,-1.16760978911115
"608",-5.4,"V14",0.00197142287629372,0.00197532478429718,0.825045168092404
"609",-5.4,"V15",0.00281360081318085,0.00282156202544428,0.467639087516328
"610",-5.4,"V16",0.00997112155646859,0.0100725783919302,-0.812185091886814
"611",-5.4,"V17",0.00909683204989974,0.00918112510815127,-0.718618010336219
"612",-5.4,"V18",0.00146259612671208,0.00146474159465119,1.12461062259726
"613",-5.4,"V19",0.00461961536987561,0.00464115569607078,-0.0318600879712875
"614",-5.4,"V20",0.00868326880393492,0.00876000651813265,-0.671239970977042
"615",-5.4,"V21",0.00154245945340614,0.00154484600257782,1.07128500779965
"616",-5.4,"V22",0.00830968128335339,0.00837990407567084,-0.626496401495401
"617",-5.4,"V23",0.00501270076050584,0.00503808304123624,-0.114321198758395
"618",-5.4,"V24",0.13139184655332,0.155604655306319,-3.70869772691176
"619",-5.4,"V25",0.0166442911676087,0.0169309481736681,-1.33846383642096
"620",-5.4,"V26",0.00225896897895564,0.00226409510560285,0.688313449704204
"621",-5.4,"V27",0.00236363067923659,0.00236924399635083,0.642812308508473
"622",-5.4,"V28",0.0133878110017171,0.0135720104699125,-1.11391929147287
"623",-5.4,"V29",0.00332287811513708,0.00333399362865298,0.300244841907862
"624",-5.4,"V30",0.00642153767640385,0.00646331207944009,-0.36487090293918
"625",-5.4,"V31",0.00615666678383821,0.00619504537098679,-0.322208874166529
"626",-5.4,"V32",0.00699337909418357,0.00704298269948886,-0.45134438193912
"627",-5.4,"V33",0.0082985999659843,0.00836863400102745,-0.625139238027627
"628",-5.4,"V34",0.0141012963096465,0.0143059567069476,-1.16732999793565
"629",-5.4,"V35",0.0157391533908901,0.0159949931983039,-1.28064476291008
"630",-5.4,"V36",0.00762119158670894,0.00768017670086545,-0.538597096976455
"631",-5.4,"V37",0.0442381545581645,0.0463902057474558,-2.37683378684522
"632",-5.4,"V38",0.00870023927056918,0.00877727991324463,-0.673227302927135
"633",-5.4,"V39",0.00361190660996202,0.00362504757991869,0.216256231279751
"634",-5.4,"V40",0.00951257119127187,0.00960482383211789,-0.764161423455317
"635",-5.4,"V41",0.00187858309469439,0.00188212549105848,0.873469661499894
"636",-5.4,"V42",0.00408757911692457,0.00410442542499391,0.0915766437268598
"637",-5.4,"V43",0.019949961958903,0.0203646822417087,-1.52662176014911
"638",-5.4,"V44",0.00443581388106856,0.00445566684813009,0.00911292101785717
"639",-5.4,"V45",0.000285573242178496,0.000285654840866607,2.76044063044325
"640",-5.4,"V46",0.0262307292654051,0.0269574324285447,-1.81383121516109
"641",-5.4,"V47",0.055677216600096,0.0591794203988385,-2.63382140157402
"642",-5.4,"V48",0.00306185184688607,0.00307128463620264,0.382583345923531
"643",-5.4,"V49",0.0363878977691774,0.037818106985115,-2.16358449793119
"644",-5.4,"V50",0.000914446986503245,0.000915284732645058,1.59535965401608
"645",-5.4,"V51",0.00281453442364749,0.00282250093517656,0.467305438909344
"646",-5.4,"V52",0.00795934940862667,0.00802372964605973,-0.582704170944375
"647",-5.4,"V53",0.000683456773548394,0.000683924526306077,1.88697882957822
"648",-5.4,"V54",0.0306546849523998,0.0316568405030344,-1.97936772680769
"649",-5.4,"V55",0.0166441853034354,0.0169308385991044,-1.3384572530879
"650",-5.4,"V56",0.00197049276866528,0.00197439098844052,0.825518945797471
"651",-5.4,"V57",0.000914198831330231,0.000915036122435593,1.59563156037276
"652",-5.4,"V58",0.000475851698645843,0.000476078349240458,2.24945192632264
"653",-5.4,"V59",0.00124244234254073,0.00124398985329583,1.28818667696205
"654",-5.4,"V60",0.0104542927894814,0.0105659317022174,-0.860501703309402
"655",-5.4,"V61",0.00246983002912202,0.0024759604090693,0.598647883494726
"656",-5.4,"V62",0.0011082512272593,0.00110948217796252,1.40275178073697
"657",-5.4,"V63",0.00481283746905206,0.00483622655635646,-0.0732274594971757
"658",-5.4,"V64",0.0306322413939881,0.0316328805242496,-1.97858583150932
"659",-5.4,"V65",0.00117305693332188,0.00117443623378912,1.34579192113344
"660",-5.4,"V66",0.00698979810742977,0.00703935056378969,-0.450824881152559
"661",-5.4,"V67",0.0262092477588507,0.0269347272932103,-1.81296526754561
"662",-5.4,"V68",0.00178959815166171,0.00179281232770408,0.922175337932673
"663",-5.4,"V69",0.00642687938350475,0.00646872377072671,-0.365713293339348
"664",-5.4,"V70",0.00480859879055866,0.0048319464975135,-0.0723377671473736
"665",-5.4,"V71",0.00117335190714692,0.00117473190218894,1.34553990332965
"666",-5.4,"V72",0.0212471641156906,0.0217188735855141,-1.5923845539667
"667",-5.4,"V73",0.0399592753133277,0.0416979983824287,-2.26529015716672
"668",-5.4,"V74",0.0332574518781689,0.0344438292516884,-2.06662558148696
"669",-5.4,"V75",0.00908402934069283,0.00916808308820506,-0.717183312410626
"670",-5.4,"V76",0.000628579192866243,0.000628974802168006,1.97079018952272
"671",-5.4,"V77",0.00226150203723404,0.0022666396927307,0.687187643396035
"672",-5.4,"V78",0.0140989480060188,0.0143035392408329,-1.16715854792316
"673",-5.4,"V79",0.00566477323337458,0.00569723168221542,-0.23793863090816
"674",-5.4,"V80",0.0187479113733526,0.0191132268125402,-1.46192356554172
"675",-5.4,"V81",0.00544022162904845,0.0054701441055843,-0.197034841947265
"676",-5.4,"V82",0.00566691003445103,0.00569939311634568,-0.238320116006974
"677",-5.4,"V83",0.0556177897468547,0.0591120207431992,-2.63261021226122
"678",-5.4,"V84",0.0735516892613031,0.0799424911530602,-2.95687133787729
"679",-5.4,"V85",0.0199220668563073,0.020335603631359,-1.52516316294437
"680",-5.4,"V86",0.0262378451149419,0.0269649538511358,-1.81411791716217
"681",-5.4,"V87",0.00521380399714977,0.00524127496035986,-0.154064561426484
"682",-5.4,"V88",0.00131400760163337,0.00131573877014463,1.23204036359853
"683",-5.4,"V89",0.000978150344214157,0.000979108998645385,1.52788799627584
"684",-5.4,"V90",0.0016224819728762,0.00162512299763363,1.02054533027096
"685",-5.4,"V91",0.00104155653729961,0.00104264364306603,1.46495263909532
"686",-5.4,"V92",0.00426026395528248,0.00427857011753312,0.0498486605048842
"687",-5.4,"V93",0.00346824475242353,0.00348035764173793,0.25713379168637
"688",-5.4,"V94",0.00566679224055453,0.00569927396427438,-0.23829908985534
"689",-5.4,"V95",0.00729788699829125,0.00735193799050751,-0.494587768346265
"690",-5.4,"V96",0.00346703963074756,0.00347914407423686,0.257483760756462
"691",-5.4,"V97",0.00375848144837881,0.00377271482553361,0.176180574341046
"692",-5.4,"V98",0.000116737044458833,0.000116750675178988,3.65535312082325
"693",-5.4,"V99",0.000737885608206287,0.000738430888383205,1.8102443404829
"694",-5.3,"V1",0.00217155499095008,0.00217629123448738,0.82795445676805
"695",-5.3,"V2",0.0183359590871423,0.0186850917404929,-1.33883255731887
"696",-5.3,"V3",0.0020768928153347,0.00208122430996309,0.87271555480607
"697",-5.3,"V4",0.0233979199809905,0.0239726058103279,-1.59342110002064
"698",-5.3,"V5",0.00285571105992349,0.00286391305792686,0.552698365309909
"699",-5.3,"V6",0.0541419967286621,0.0574415255908685,-2.50216952490582
"700",-5.3,"V7",0.00553843277445798,0.00556945156519504,-0.115126326634386
"701",-5.3,"V8",0.0104938791123593,0.0106063742878942,-0.764362912101745
"702",-5.3,"V9",0.00145363165860769,0.00145575086920087,1.23077663866211
"703",-5.3,"V10",0.0206214286581847,0.0210651700473067,-1.46115589556288
"704",-5.3,"V11",0.00310722540337702,0.00311694072284677,0.467781487251019
"705",-5.3,"V12",0.0539218329747711,0.057192855720203,-2.49756724182968
"706",-5.3,"V13",0.015541763288546,0.0157911228493905,-1.16760978911115
"707",-5.3,"V14",0.00217785425195591,0.00218261807361117,0.825045168092404
"708",-5.3,"V15",0.00310766514407434,0.00311738322222857,0.467639087516328
"709",-5.3,"V16",0.0109964831446217,0.0111201406732137,-0.812185091886814
"710",-5.3,"V17",0.0100341671428681,0.0101369243787281,-0.718618010336219
"711",-5.3,"V18",0.00161592080634299,0.00161854047962718,1.12461062259726
"712",-5.3,"V19",0.00510048410269038,0.00512676785129141,-0.0318600879712875
"713",-5.3,"V20",0.00957883809813937,0.0096723932900977,-0.671239970977042
"714",-5.3,"V21",0.00170412753623931,0.00170704152701427,1.07128500779965
"715",-5.3,"V22",0.00916745201416827,0.00925307134345535,-0.626496401495401
"716",-5.3,"V23",0.00553402503283918,0.00556499419320963,-0.114321198758395
"717",-5.3,"V24",0.140571859583092,0.169200755114363,-3.70869772691176
"718",-5.3,"V25",0.0183294519992884,0.0186783320889121,-1.33846383642096
"719",-5.3,"V26",0.00249535830461923,0.00250161638917784,0.688313449704204
"720",-5.3,"V27",0.00261091457342151,0.00261776727894824,0.642812308508473
"721",-5.3,"V28",0.0147536711026662,0.014978011944475,-1.11391929147287
"722",-5.3,"V29",0.00366977427275283,0.00368334127570615,0.300244841907862
"723",-5.3,"V30",0.00708725825198921,0.00713821232721765,-0.36487090293918
"724",-5.3,"V31",0.0067953113817,0.00684212607086967,-0.322208874166529
"725",-5.3,"V32",0.00771744207928789,0.00777793840512176,-0.45134438193912
"726",-5.3,"V33",0.00915524850665661,0.00924063789536996,-0.625139238027627
"727",-5.3,"V34",0.0155375527256433,0.0157867749902357,-1.16732999793565
"728",-5.3,"V35",0.0173360797564406,0.0176475145253636,-1.28064476291008
"729",-5.3,"V36",0.00840912918375226,0.00848105752041688,-0.538597096976455
"730",-5.3,"V37",0.0484171247110909,0.0510201838735853,-2.37683378684522
"731",-5.3,"V38",0.00959752401486513,0.00969144818274394,-0.673227302927135
"732",-5.3,"V39",0.00398873215943068,0.00400477034494644,0.216256231279751
"733",-5.3,"V40",0.010491809766633,0.0106042600988776,-0.764161423455317
"734",-5.3,"V41",0.00207533371881967,0.00207965869912452,0.873469661499894
"735",-5.3,"V42",0.00451357600799966,0.00453413438259913,0.0915766437268598
"736",-5.3,"V43",0.0219539762291232,0.0224583538885045,-1.52662176014911
"737",-5.3,"V44",0.00489774119641233,0.00492196695511962,0.00911292101785717
"738",-5.3,"V45",0.000315588279777949,0.000315687938652559,2.76044063044325
"739",-5.3,"V46",0.0288257574465281,0.0297083430960401,-1.81383121516109
"740",-5.3,"V47",0.0607739774703589,0.0649988246801612,-2.63382140157402
"741",-5.3,"V48",0.0033816846290859,0.00339319842463485,0.382583345923531
"742",-5.3,"V49",0.0398968465939091,0.0416298947290619,-2.16358449793119
"743",-5.3,"V50",0.00101042567639212,0.00101144870487471,1.59535965401608
"744",-5.3,"V51",0.00310869571735784,0.0031184202622901,0.467305438909344
"745",-5.3,"V52",0.00878161428081055,0.00886011593519566,-0.582704170944375
"746",-5.3,"V53",0.000755227900449636,0.000755799132778745,1.88697882957822
"747",-5.3,"V54",0.0336541981038574,0.0348701236255162,-1.97936772680769
"748",-5.3,"V55",0.0183293358385418,0.0186782114204072,-1.3384572530879
"749",-5.3,"V56",0.00217682717849412,0.002181586498143,0.825518945797471
"750",-5.3,"V57",0.00101015152812309,0.00101117400098336,1.59563156037276
"751",-5.3,"V58",0.000525844799667531,0.000526121603609316,2.24945192632264
"752",-5.3,"V59",0.00137275192232743,0.00137464156175072,1.28818667696205
"753",-5.3,"V60",0.0115281453119709,0.0116641988467064,-0.860501703309402
"754",-5.3,"V61",0.00272816331362773,0.00273564707856619,0.598647883494726
"755",-5.3,"V62",0.00122452124245897,0.00122602437823499,1.40275178073697
"756",-5.3,"V63",0.00531360131138435,0.00534213976869259,-0.0732274594971757
"757",-5.3,"V64",0.0336297274022326,0.0348438191340811,-1.97858583150932
"758",-5.3,"V65",0.00129610820658616,0.00129779247188624,1.34579192113344
"759",-5.3,"V66",0.00771349622196002,0.00777393021291529,-0.450824881152559
"760",-5.3,"V67",0.0288022879224691,0.0296833916630937,-1.81296526754561
"761",-5.3,"V68",0.00197706620351001,0.00198099052697798,0.922175337932673
"762",-5.3,"V69",0.00709314566498815,0.00714418504494456,-0.365713293339348
"763",-5.3,"V70",0.00530892638593602,0.00533741437818042,-0.0723377671473736
"764",-5.3,"V71",0.00129643404194506,0.00129811915528638,1.34553990332965
"765",-5.3,"V72",0.0233748405777046,0.0239483647519994,-1.5923845539667
"766",-5.3,"V73",0.043777026060534,0.0458822025735326,-2.26529015716672
"767",-5.3,"V74",0.0364903182202337,0.0379289212904942,-2.06662558148696
"768",-5.3,"V75",0.010020072707351,0.010122538492891,-0.717183312410626
"769",-5.3,"V76",0.000694595545831221,0.000695078680202893,1.97079018952272
"770",-5.3,"V77",0.00249815509746218,0.0025044272533294,0.687187643396035
"771",-5.3,"V78",0.0155349731283083,0.0157841112977686,-1.16715854792316
"772",-5.3,"V79",0.00625304695010442,0.00629264432267612,-0.23793863090816
"773",-5.3,"V80",0.020636597493165,0.0210810063206566,-1.46192356554172
"774",-5.3,"V81",0.00600546285818479,0.00604196823837836,-0.197034841947265
"775",-5.3,"V82",0.00625540281082138,0.00629503021624481,-0.238320116006974
"776",-5.3,"V83",0.0607099659663712,0.0649252546588934,-2.63261021226122
"777",-5.3,"V84",0.0799373704231589,0.0876134949142479,-2.95687133787729
"778",-5.3,"V85",0.0219234128133475,0.0224263541749268,-1.52516316294437
"779",-5.3,"V86",0.0288335317853492,0.0297166086127953,-1.81411791716217
"780",-5.3,"V87",0.00575579726847642,0.0057893134183321,-0.154064561426484
"781",-5.3,"V88",0.00145180116655652,0.00145391503548693,1.23204036359853
"782",-5.3,"V89",0.00108080071417431,0.0010819713762333,1.52788799627584
"783",-5.3,"V90",0.00179250710402901,0.00179573175657056,1.02054533027096
"784",-5.3,"V91",0.00115084558695479,0.00115217308978361,1.46495263909532
"785",-5.3,"V92",0.0047040853747387,0.0047264244629426,0.0498486605048842
"786",-5.3,"V93",0.00383019877021686,0.00384498266188707,0.25713379168637
"787",-5.3,"V94",0.00625527294103767,0.00629489869056211,-0.23829908985534
"788",-5.3,"V95",0.00805295440857114,0.00811887046621837,-0.494587768346265
"789",-5.3,"V96",0.00382886885627935,0.00384364244351293,0.257483760756462
"790",-5.3,"V97",0.0041504700933824,0.0041678409919163,0.176180574341046
"791",-5.3,"V98",0.000129011218378931,0.000129027866569282,3.65535312082325
"792",-5.3,"V99",0.000815363065575267,0.000816028968853275,1.8102443404829
"793",-5.2,"V1",0.00239884119156725,0.00240462340528851,0.82795445676805
"794",-5.2,"V2",0.020184958723958,0.0206097192515872,-1.33883255731887
"795",-5.2,"V3",0.00229431704971512,0.00229960523394712,0.87271555480607
"796",-5.2,"V4",0.0257288011742269,0.0264271979665923,-1.59342110002064
"797",-5.2,"V5",0.00315414846636245,0.00316416037725544,0.552698365309909
"798",-5.2,"V6",0.0591196973803158,0.0631014962034269,-2.50216952490582
"799",-5.2,"V7",0.00611375054695376,0.00615159263894933,-0.115126326634386
"800",-5.2,"V8",0.0115716995661525,0.0117087954572114,-0.764362912101745
"801",-5.2,"V9",0.00160601962530298,0.00160860724256381,1.23077663866211
"802",-5.2,"V10",0.0226895570245973,0.0232291504554806,-1.46115589556288
"803",-5.2,"V11",0.00343176483886093,0.00344362338085007,0.467781487251019
"804",-5.2,"V12",0.0588823535838121,0.0628299570919939,-2.49756724182968
"805",-5.2,"V13",0.0171193949358274,0.0174229542713697,-1.16760978911115
"806",-5.2,"V14",0.00240579656497931,0.00241161243953784,0.825045168092404
"807",-5.2,"V15",0.00343225018966647,0.00344411209780875,0.467639087516328
"808",-5.2,"V16",0.0121246169363599,0.0122752999245987,-0.812185091886814
"809",-5.2,"V17",0.0110658622910606,0.0111911030791896,-0.718618010336219
"810",-5.2,"V18",0.0017852608430549,0.00178845943018833,1.12461062259726
"811",-5.2,"V19",0.00563083291890516,0.00566290137084103,-0.0318600879712875
"812",-5.2,"V20",0.0105647482874468,0.010678784730773,-0.671239970977042
"813",-5.2,"V21",0.0018826761351347,0.00188623401388986,1.07128500779965
"814",-5.2,"V22",0.0101119108894173,0.0102162833345899,-0.626496401495401
"815",-5.2,"V23",0.00610889066494356,0.00614667224462642,-0.114321198758395
"816",-5.2,"V24",0.149970974399943,0.183726343809579,-3.70869772691176
"817",-5.2,"V25",0.0201778240941338,0.0206022779509,-1.33846383642096
"818",-5.2,"V26",0.00275634686285625,0.00276398648414076,0.688313449704204
"819",-5.2,"V27",0.00288391867699583,0.00289228398363784,0.642812308508473
"820",-5.2,"V28",0.0162540793860796,0.0165272286737128,-1.11391929147287
"821",-5.2,"V29",0.00405258740827374,0.00406914535217084,0.300244841907862
"822",-5.2,"V30",0.00782088451921449,0.00788302662803277,-0.36487090293918
"823",-5.2,"V31",0.00749918391942794,0.0075562813066126,-0.322208874166529
"824",-5.2,"V32",0.00851515583506156,0.00858892547589198,-0.45134438193912
"825",-5.2,"V33",0.010098476523923,0.0102025689368339,-0.625139238027627
"826",-5.2,"V34",0.0171147725882695,0.0174181650624109,-1.16732999793565
"827",-5.2,"V35",0.01908840904846,0.0194673882538876,-1.28064476291008
"828",-5.2,"V36",0.00927696825907213,0.0093646652136356,-0.538597096976455
"829",-5.2,"V37",0.052939543721861,0.0560850799104191,-2.37683378684522
"830",-5.2,"V38",0.0105853150849942,0.0106998008226383,-0.673227302927135
"831",-5.2,"V39",0.00440451976264094,0.00442409235581371,0.216256231279751
"832",-5.2,"V40",0.011569422818301,0.0117064641205057,-0.764161423455317
"833",-5.2,"V41",0.00229259549046294,0.00229787572330268,0.873469661499894
"834",-5.2,"V42",0.00498351893487401,0.00500860505951622,0.0915766437268598
"835",-5.2,"V43",0.024148684612529,0.024761832985322,-1.52662176014911
"836",-5.2,"V44",0.00540724159236638,0.00543680039085639,0.00911292101785717
"837",-5.2,"V45",0.000348755830294267,0.000348877545836256,2.76044063044325
"838",-5.2,"V46",0.0316592440714923,0.0327305317822405,-1.81383121516109
"839",-5.2,"V47",0.0662566768158618,0.0713470830798673,-2.63382140157402
"840",-5.2,"V48",0.0037346734761193,0.00374872642593581,0.382583345923531
"841",-5.2,"V49",0.0437092562373611,0.0458075916941819,-2.16358449793119
"842",-5.2,"V50",0.00111645553390207,0.00111770479791736,1.59535965401608
"843",-5.2,"V51",0.00343338765413187,0.00344525745304966,0.467305438909344
"844",-5.2,"V52",0.00968712286945102,0.00978282656505292,-0.582704170944375
"845",-5.2,"V53",0.000834523237509243,0.000835220831346358,1.88697882957822
"846",-5.2,"V54",0.0369223322076231,0.0383966336860433,-1.97936772680769
"847",-5.2,"V55",0.0201776967306852,0.0206021451139828,-1.3384572530879
"848",-5.2,"V56",0.00240466251584744,0.00241047289542703,0.825518945797471
"849",-5.2,"V57",0.00111615268214312,0.00111740126773626,1.59563156037276
"850",-5.2,"V58",0.000581084072342677,0.000581422124028987,2.24945192632264
"851",-5.2,"V59",0.00151668692870716,0.00151899427230646,1.28818667696205
"852",-5.2,"V60",0.0127093697673279,0.0128751389708465,-0.860501703309402
"853",-5.2,"V61",0.0030133525581135,0.00302248799177392,0.598647883494726
"854",-5.2,"V62",0.00135295633714898,0.00135479179796481,1.40275178073697
"855",-5.2,"V63",0.00586584448230771,0.00590066229786111,-0.0732274594971757
"856",-5.2,"V64",0.0368956885696456,0.0383677747054974,-1.97858583150932
"857",-5.2,"V65",0.00143203015425493,0.00143408675908752,1.34579192113344
"858",-5.2,"V66",0.00851080928352561,0.00858450297485083,-0.450824881152559
"859",-5.2,"V67",0.0316336330691126,0.0327031276256095,-1.81296526754561
"860",-5.2,"V68",0.00218408590018863,0.00218887708307344,0.922175337932673
"861",-5.2,"V69",0.00782737153215716,0.00788961759799983,-0.365713293339348
"862",-5.2,"V70",0.0058606895132856,0.00589544579440031,-0.0723377671473736
"863",-5.2,"V71",0.00143239006132312,0.00143444770153155,1.34553990332965
"864",-5.2,"V72",0.0257035533504198,0.0264005419665472,-1.5923845539667
"865",-5.2,"V73",0.0479175307757424,0.0504641624694894,-2.26529015716672
"866",-5.2,"V74",0.0400082147708966,0.0417513936419409,-2.06662558148696
"867",-5.2,"V75",0.0110503520930687,0.011175238038281,-0.717183312410626
"868",-5.2,"V76",0.000767534576254117,0.000768124591642403,1.97079018952272
"869",-5.2,"V77",0.00275943454011339,0.00276709133456723,0.687187643396035
"870",-5.2,"V78",0.0171119407072168,0.0174152309772062,-1.16715854792316
"871",-5.2,"V79",0.00690154768343827,0.00694984807165739,-0.23793863090816
"872",-5.2,"V80",0.0227061716781005,0.0232465749237878,-1.46192356554172
"873",-5.2,"V81",0.00662863603161991,0.00667316719199219,-0.197034841947265
"874",-5.2,"V82",0.00690414440685205,0.00695248140453242,-0.238320116006974
"875",-5.2,"V83",0.066187907830459,0.0712668753530455,-2.63261021226122
"876",-5.2,"V84",0.0867386055432969,0.0959438226475146,-2.95687133787729
"877",-5.2,"V85",0.0241152277486199,0.0247266341868292,-1.52516316294437
"878",-5.2,"V86",0.0316677277192651,0.0327396097669578,-1.81411791716217
"879",-5.2,"V87",0.00635340063898141,0.00639428755228269,-0.154064561426484
"880",-5.2,"V88",0.00160399785732851,0.00160657895326157,1.23204036359853
"881",-5.2,"V89",0.00119419772196727,0.00119562724647979,1.52788799627584
"882",-5.2,"V90",0.00198027866524874,0.00198421577750042,1.02054533027096
"883",-5.2,"V91",0.00127157288927892,0.00127319391201652,1.46495263909532
"884",-5.2,"V92",0.00519365372128864,0.00522091163963754,0.0498486605048842
"885",-5.2,"V93",0.00422960286302592,0.00424764535407996,0.25713379168637
"886",-5.2,"V94",0.00690400125927768,0.00695233623845014,-0.23829908985534
"887",-5.2,"V95",0.00888471177816562,0.0089650845185911,-0.494587768346265
"888",-5.2,"V96",0.0042281354602465,0.00424616538068664,0.257483760756462
"889",-5.2,"V97",0.00458296021317563,0.00460415848856344,0.176180574341046
"890",-5.2,"V98",0.000142575577136418,0.000142595910730175,3.65535312082325
"891",-5.2,"V99",0.000900960895649302,0.000901774092162598,1.8102443404829
"892",-5.1,"V1",0.00264978910800704,0.00265684794903131,0.82795445676805
"893",-5.1,"V2",0.0222114365178408,0.0227279984304975,-1.33883255731887
"894",-5.1,"V3",0.00253438644114894,0.00254084232084835,0.87271555480607
"895",-5.1,"V4",0.0282773179653023,0.0291256196874822,-1.59342110002064
"896",-5.1,"V5",0.00348355427252297,0.0034957747133696,0.552698365309909
"897",-5.1,"V6",0.0644787119340465,0.0692781778619134,-2.50216952490582
"898",-5.1,"V7",0.00674800498507096,0.00679416567225299,-0.115126326634386
"899",-5.1,"V8",0.0127572672582691,0.0129243049158264,-0.764362912101745
"900",-5.1,"V9",0.00177432577670144,0.00177748523044589,1.23077663866211
"901",-5.1,"V10",0.0249537639915727,0.0256096164460885,-1.46115589556288
"902",-5.1,"V11",0.00378994100193913,0.00380441457217611,0.467781487251019
"903",-5.1,"V12",0.0642234976257825,0.0689820161823668,-2.49756724182968
"904",-5.1,"V13",0.0188507104890983,0.0192201236419086,-1.16760978911115
"905",-5.1,"V14",0.00265746819221199,0.00266456811545388,0.825045168092404
"906",-5.1,"V15",0.00379047661970277,0.0038049542969043,0.467639087516328
"907",-5.1,"V16",0.0133652425768219,0.0135488129080389,-0.812185091886814
"908",-5.1,"V17",0.0122009318148913,0.0123535418101463,-0.718618010336219
"909",-5.1,"V18",0.00197227634876532,0.00197618164265007,1.12461062259726
"910",-5.1,"V19",0.00621562686847728,0.00625474875040801,-0.0318600879712875
"911",-5.1,"V20",0.0116496704361079,0.0117886425287792,-0.671239970977042
"912",-5.1,"V21",0.00207985364075933,0.00208419752006196,1.07128500779965
"913",-5.1,"V22",0.0111514135632065,0.0112786208515188,-0.626496401495401
"914",-5.1,"V23",0.00674264790169635,0.00678873482218226,-0.114321198758395
"915",-5.1,"V24",0.159519322550116,0.199199937749535,-3.70869772691176
"916",-5.1,"V25",0.0222036202820231,0.022719810050766,-1.33846383642096
"917",-5.1,"V26",0.00304446413907047,0.00305378977103615,0.688313449704204
"918",-5.1,"V27",0.00318528493072883,0.00319549612622153,0.642812308508473
"919",-5.1,"V28",0.0179012504254062,0.0182337189314784,-1.11391929147287
"920",-5.1,"V29",0.00447497074806261,0.00449517736762905,0.300244841907862
"921",-5.1,"V30",0.00862910002089405,0.00870487486735027,-0.36487090293918
"922",-5.1,"V31",0.00827472288934411,0.00834435108436323,-0.322208874166529
"923",-5.1,"V32",0.00939372412760426,0.00948366401067157,-0.45134438193912
"924",-5.1,"V33",0.0111366302387476,0.0112634965942769,-0.625139238027627
"925",-5.1,"V34",0.0188456396249457,0.019214850088884,-1.16732999793565
"926",-5.1,"V35",0.0210098352788549,0.0214708319013927,-1.28064476291008
"927",-5.1,"V36",0.0102324698787665,0.0103393725025122,-0.538597096976455
"928",-5.1,"V37",0.0578230910833071,0.0616201317160049,-2.37683378684522
"929",-5.1,"V38",0.0116722977525864,0.0118118167679459,-0.673227302927135
"930",-5.1,"V39",0.00486322052148312,0.00488710431002014,0.216256231279751
"931",-5.1,"V40",0.0127547634952962,0.0129217347235623,-0.764161423455317
"932",-5.1,"V41",0.00253248566496412,0.00253893183985153,0.873469661499894
"933",-5.1,"V42",0.00550184237338273,0.00553245038059649,0.0915766437268598
"934",-5.1,"V43",0.0265499597596627,0.02729497544416,-1.52662176014911
"935",-5.1,"V44",0.00596909802293449,0.00600515996919005,0.00911292101785717
"936",-5.1,"V45",0.000385406518135662,0.000385555170925489,2.76044063044325
"937",-5.1,"V46",0.0347492295265904,0.0360487412740325,-1.81383121516109
"938",-5.1,"V47",0.0721382913470206,0.0782634606143553,-2.63382140157402
"939",-5.1,"V48",0.0041241998839099,0.00414135066927581,0.382583345923531
"940",-5.1,"V49",0.0478440984152238,0.0503824941299814,-2.16358449793119
"941",-5.1,"V50",0.00123358415461473,0.00123510965046339,1.59535965401608
"942",-5.1,"V51",0.00379173188899691,0.00380621919354623,0.467305438909344
"943",-5.1,"V52",0.0106839304389681,0.0108005830328169,-0.582704170944375
"944",-5.1,"V53",0.000922128804113467,0.00092298069748139,1.88697882957822
"945",-5.1,"V54",0.0404779111569463,0.0422641713356342,-1.97936772680769
"946",-5.1,"V55",0.022203480750696,0.0227196638773979,-1.3384572530879
"947",-5.1,"V56",0.00265621614612895,0.00266330936289141,0.825518945797471
"948",-5.1,"V57",0.00123324960906075,0.00123477427657484,1.59563156037276
"949",-5.1,"V58",0.000642118685865166,0.000642531532635597,2.24945192632264
"950",-5.1,"V59",0.00167566285490571,0.0016784801505214,1.28818667696205
"951",-5.1,"V60",0.0140080638058456,0.0142099875520758,-0.860501703309402
"952",-5.1,"V61",0.00332815338444037,0.0033393043379015,0.598647883494726
"953",-5.1,"V62",0.00149482198837875,0.00149706318656331,1.40275178073697
"954",-5.1,"V63",0.0064747220971743,0.00651719594009591,-0.0732274594971757
"955",-5.1,"V64",0.0404489463140318,0.0422325331721702,-1.97858583150932
"956",-5.1,"V65",0.00158216078796218,0.0015846719732249,1.34579192113344
"957",-5.1,"V66",0.00938893783794335,0.0094787852069427,-0.450824881152559
"958",-5.1,"V67",0.0347213183105657,0.0360186623478976,-1.81296526754561
"959",-5.1,"V68",0.0024126772650182,0.00241852653562171,0.922175337932673
"960",-5.1,"V69",0.00863624544314353,0.00871214694757975,-0.365713293339348
"961",-5.1,"V70",0.00646903913351053,0.00651143795778866,-0.0723377671473736
"962",-5.1,"V71",0.0015825583066992,0.00158507075600073,1.34553990332965
"963",-5.1,"V72",0.0282497272203615,0.0290963232468465,-1.5923845539667
"964",-5.1,"V73",0.0523993804957993,0.0554770877623959,-2.26529015716672
"965",-5.1,"V74",0.0438301511251225,0.045940698944645,-2.06662558148696
"966",-5.1,"V75",0.0121838712849234,0.0123360493997156,-0.717183312410626
"967",-5.1,"V76",0.000848119857104503,0.000848840387107288,1.97079018952272
"968",-5.1,"V77",0.00304787257720351,0.00305721916623389,0.687187643396035
"969",-5.1,"V78",0.0188425329550833,0.0192116192700611,-1.16715854792316
"970",-5.1,"V79",0.00761625194976465,0.00767516003127026,-0.23793863090816
"971",-5.1,"V80",0.0249719453315431,0.0256287796793982,-1.46192356554172
"972",-5.1,"V81",0.00731550378597798,0.00736981800338094,-0.197034841947265
"973",-5.1,"V82",0.00761911336518007,0.00767806606365796,-0.238320116006974
"974",-5.1,"V83",0.0720646244742314,0.0781761321051539,-2.63261021226122
"975",-5.1,"V84",0.0939553059491048,0.104975071608265,-2.95687133787729
"976",-5.1,"V85",0.0265133718311873,0.0272562764363627,-1.52516316294437
"977",-5.1,"V86",0.0347584750470114,0.0360587052729746,-1.81411791716217
"978",-5.1,"V87",0.00701215918862472,0.00706203147720982,-0.154064561426484
"979",-5.1,"V88",0.00177209288927392,0.00177524438188935,1.23204036359853
"980",-5.1,"V89",0.00131946074013788,0.00132120632629452,1.52788799627584
"981",-5.1,"V90",0.00218763325678175,0.00219244005015528,1.02054533027096
"982",-5.1,"V91",0.00140492910388746,0.00140690849540189,1.46495263909532
"983",-5.1,"V92",0.00573357684537103,0.00576683321065049,0.0498486605048842
"984",-5.1,"V93",0.00467026046784799,0.00469227794011528,0.25713379168637
"985",-5.1,"V94",0.00761895562621642,0.00767790586468336,-0.23829908985534
"986",-5.1,"V95",0.0098006349856474,0.00989861761636236,-0.494587768346265
"987",-5.1,"V96",0.00466864163764894,0.00469064377668873,0.257483760756462
"988",-5.1,"V97",0.00506005276617405,0.00508591934172458,0.176180574341046
"989",-5.1,"V98",0.000157565655437325,0.000157590490199926,3.65535312082325
"990",-5.1,"V99",0.000995526938876083,0.000996519990968483,1.8102443404829
"991",-5,"V1",0.00292683398241226,0.00293545085412927,0.82795445676805
"992",-5,"V2",0.0244305004551841,0.0250584251249256,-1.33883255731887
"993",-5,"V3",0.00279943384537029,0.00280731486210529,0.87271555480607
"994",-5,"V4",0.0310606897819401,0.0320904892844559,-1.59342110002064
"995",-5,"V5",0.0038470935561148,0.00386200866705924,0.552698365309909
"996",-5,"V6",0.0702328290998243,0.0760104118021579,-2.50216952490582
"997",-5,"V7",0.00744705249972477,0.00750335280301123,-0.115126326634386
"998",-5,"V8",0.0140607104384807,0.0142641771893705,-0.764362912101745
"999",-5,"V9",0.0019602003003782,0.0019640578235123,1.23077663866211
"1000",-5,"V10",0.027430214910562,0.028226977149564,-1.46115589556288
"1001",-5,"V11",0.0041851828079849,0.00420284672860908,0.467781487251019
"1002",-5,"V12",0.0699591658495317,0.0756878105092098,-2.49756724182968
"1003",-5,"V13",0.0207492870980748,0.0211986707391831,-1.16760978911115
"1004",-5,"V14",0.00293531117693328,0.002943978184484,0.825045168092404
"1005",-5,"V15",0.00418577380874359,0.00420344273960876,0.467639087516328
"1006",-5,"V16",0.0147288719528074,0.014952447643334,-0.812185091886814
"1007",-5,"V17",0.0134491451575912,0.0136350600193217,-0.718618010336219
"1008",-5,"V18",0.00217879670051603,0.00218356465511911,1.12461062259726
"1009",-5,"V19",0.0068603014290517,0.00690802219976413,-0.0318600879712875
"1010",-5,"V20",0.0128430111247327,0.0130123319063743,-0.671239970977042
"1011",-5,"V21",0.0022975863992895,0.00230288970026107,1.07128500779965
"1012",-5,"V22",0.0122950323515158,0.0124500357414799,-0.626496401495401
"1013",-5,"V23",0.00744114895308627,0.00749735935031402,-0.114321198758395
"1014",-5,"V24",0.169135107402347,0.215632469157161,-3.70869772691176
"1015",-5,"V25",0.0244219452906688,0.0250494186661825,-1.33846383642096
"1016",-5,"V26",0.00336249301786684,0.00337387605751833,0.688313449704204
"1017",-5,"V27",0.00351791931665839,0.00353038292022178,0.642812308508473
"1018",-5,"V28",0.0197082814457855,0.0201128064282039,-1.11391929147287
"1019",-5,"V29",0.00494093465406743,0.00496559175555021,0.300244841907862
"1020",-5,"V30",0.0095191927779317,0.0096115751548898,-0.36487090293918
"1021",-5,"V31",0.00912895323225349,0.00921384823148636,-0.322208874166529
"1022",-5,"V32",0.0103609921866438,0.0104706261996567,-0.45134438193912
"1023",-5,"V33",0.0122787719580512,0.0124333604091142,-0.625139238027627
"1024",-5,"V34",0.0207437284780264,0.0211928660494149,-1.16732999793565
"1025",-5,"V35",0.0231149490183987,0.0236754772409873,-1.28064476291008
"1026",-5,"V36",0.0112840741535673,0.0114143618090758,-0.538597096976455
"1027",-5,"V37",0.063084097813796,0.0676622822535558,-2.37683378684522
"1028",-5,"V38",0.012867893636276,0.0130378799498631,-0.673227302927135
"1029",-5,"V39",0.00536916916559597,0.00539831092645465,0.216256231279751
"1030",-5,"V40",0.0140579584492135,0.0142613443931125,-0.764161423455317
"1031",-5,"V41",0.00279733540887964,0.00280520458162441,0.873469661499894
"1032",-5,"V42",0.00607340647256563,0.00611074771014265,0.0915766437268598
"1033",-5,"V43",0.0291745041296279,0.0300792663965846,-1.52662176014911
"1034",-5,"V44",0.00658854867857069,0.00663253925554706,0.00911292101785717
"1035",-5,"V45",0.000425905534530052,0.000426087084733829,2.76044063044325
"1036",-5,"V46",0.0381142862487496,0.0396895463372026,-1.81383121516109
"1037",-5,"V47",0.0784287281310196,0.0857883730881273,-2.63382140157402
"1038",-5,"V48",0.00455397794110805,0.00457490772177077,0.382583345923531
"1039",-5,"V49",0.0523199738358469,0.0553877800103183,-2.16358449793119
"1040",-5,"V50",0.0013629672172972,0.0013648299781665,1.59535965401608
"1041",-5,"V51",0.00418715887263228,0.00420483954825888,0.467305438909344
"1042",-5,"V52",0.0117807902416117,0.0119229469044993,-0.582704170944375
"1043",-5,"V53",0.00101891211434512,0.00101995241727863,1.88697882957822
"1044",-5,"V54",0.0443399553733331,0.046502431509642,-1.97936772680769
"1045",-5,"V55",0.0244217925681016,0.0250492578888855,-1.3384572530879
"1046",-5,"V56",0.00293392900381864,0.00294258782693789,0.825518945797471
"1047",-5,"V57",0.00136259767942502,0.00136445942895829,1.59563156037276
"1048",-5,"V58",0.000709554997077406,0.000710059181118096,2.24945192632264
"1049",-5,"V59",0.00185124020918762,0.00185468004726534,1.28818667696205
"1050",-5,"V60",0.0154351353399721,0.0156810300431874,-0.860501703309402
"1051",-5,"V61",0.00367559615617709,0.00368920640003918,0.598647883494726
"1052",-5,"V62",0.0016515136948785,0.00165425023873084,1.40275178073697
"1053",-5,"V63",0.00714587536293245,0.00719768198894645,-0.0732274594971757
"1054",-5,"V64",0.0443085205216218,0.0464677745976829,-1.97858583150932
"1055",-5,"V65",0.0017479754019464,0.0017510415484508,1.34579192113344
"1056",-5,"V66",0.0103557236712521,0.0104652450246787,-0.450824881152559
"1057",-5,"V67",0.0380839121986934,0.0396565545146683,-1.81296526754561
"1058",-5,"V68",0.00266506481096748,0.00267220549316518,0.922175337932673
"1059",-5,"V69",0.00952706069190397,0.00961959734498359,-0.365713293339348
"1060",-5,"V70",0.0071396119588502,0.00719132714495598,-0.0723377671473736
"1061",-5,"V71",0.00174841443505933,0.00175148212469245,1.34553990332965
"1062",-5,"V72",0.0310305738798712,0.0320583090596342,-1.5923845539667
"1063",-5,"V73",0.0572403761772086,0.0609560115173066,-2.26529015716672
"1064",-5,"V74",0.0479750930344522,0.0505281911336955,-2.06662558148696
"1065",-5,"V75",0.013430388605697,0.0136157780166969,-0.717183312410626
"1066",-5,"V76",0.000937150068644339,0.000938029968866831,1.97079018952272
"1067",-5,"V77",0.00336625507864577,0.00337766369065293,0.687187643396035
"1068",-5,"V78",0.0207403229778292,0.0211893098288523,-1.16715854792316
"1069",-5,"V79",0.00840368770956495,0.00847552218588844,-0.23793863090816
"1070",-5,"V80",0.027450090245868,0.028248042130049,-1.46192356554172
"1071",-5,"V81",0.00807236356071101,0.00813860037680433,-0.197034841947265
"1072",-5,"V82",0.00840683982889312,0.00847872866873108,-0.238320116006974
"1073",-5,"V83",0.0783500649734403,0.085693428694934,-2.63261021226122
"1074",-5,"V84",0.101581308855694,0.114748535182141,-2.95687133787729
"1075",-5,"V85",0.0291345358494038,0.030036741701443,-1.52516316294437
"1076",-5,"V86",0.0381243474887526,0.0397004752215712,-1.81411791716217
"1077",-5,"V87",0.00773813559825901,0.00779895936544284,-0.154064561426484
"1078",-5,"V88",0.00195773442309629,0.00196158222793323,1.23204036359853
"1079",-5,"V89",0.00145782447273708,0.00145995594409578,1.52788799627584
"1080",-5,"V90",0.00241659408528862,0.00242246240941365,1.02054533027096
"1081",-5,"V91",0.00155222740027167,0.00155464431923098,1.46495263909532
"1082",-5,"V92",0.00632890305879816,0.00636947324825844,0.0498486605048842
"1083",-5,"V93",0.00515634557105225,0.00518321124991348,0.25713379168637
"1084",-5,"V94",0.00840666606462802,0.00847855190706888,-0.23829908985534
"1085",-5,"V95",0.0108088599942976,0.0109282874611308,-0.494587768346265
"1086",-5,"V96",0.00515456002240107,0.00518140700091015,0.257483760756462
"1087",-5,"V97",0.00558624550011237,0.00561780523577953,0.176180574341046
"1088",-5,"V98",0.000174131207949848,0.00017416154019193,3.65535312082325
"1089",-5,"V99",0.00109999683875778,0.00110120950112314,1.8102443404829
"1090",-4.9,"V1",0.00323265549422551,0.0032431736696772,0.82795445676805
"1091",-4.9,"V2",0.0268581273144117,0.0276210497009966,-1.33883255731887
"1092",-4.9,"V3",0.00309202677473511,0.0031016469887781,0.87271555480607
"1093",-4.9,"V4",0.0340968299985864,0.035346182624727,-1.59342110002064
"1094",-4.9,"V5",0.00424824418932386,0.00426644675725637,0.552698365309909
"1095",-4.9,"V6",0.0763930138296099,0.083338283291601,-2.50216952490582
"1096",-4.9,"V7",0.00821729163419903,0.0082859485780369,-0.115126326634386
"1097",-4.9,"V8",0.0154929690172054,0.0157407399101235,-0.764362912101745
"1098",-4.9,"V9",0.00216546167001891,0.00217017131354906,1.23077663866211
"1099",-4.9,"V10",0.0301358839983605,0.0311032992207778,-1.46115589556288
"1100",-4.9,"V11",0.00462125607352465,0.00464281177469995,0.467781487251019
"1101",-4.9,"V12",0.0761004702046495,0.0829873745372324,-2.49756724182968
"1102",-4.9,"V13",0.0228295987598857,0.0233760379081699,-1.16760978911115
"1103",-4.9,"V14",0.00324201264778043,0.00325259200251525,0.825045168092404
"1104",-4.9,"V15",0.00462190807417078,0.00464346988676003,0.467639087516328
"1105",-4.9,"V16",0.0162268453483538,0.016499064476969,-0.812185091886814
"1106",-4.9,"V17",0.0148210664554721,0.0150474935166043,-0.718618010336219
"1107",-4.9,"V18",0.00240683717460028,0.00241265809367727,1.12461062259726
"1108",-4.9,"V19",0.00757080090994482,0.00762900259047022,-0.0318600879712875
"1109",-4.9,"V20",0.0141549532436737,0.0143611972295395,-0.671239970977042
"1110",-4.9,"V21",0.00253799613116377,0.00254447046109114,1.07128500779965
"1111",-4.9,"V22",0.01355259790895,0.0137414246606545,-0.626496401495401
"1112",-4.9,"V23",0.00821078783422735,0.00827933522601203,-0.114321198758395
"1113",-4.9,"V24",0.178724940016578,0.233026106176236,-3.70869772691176
"1114",-4.9,"V25",0.0268487727639334,0.0276111482728803,-1.33846383642096
"1115",-4.9,"V26",0.00371349368304483,0.00372738709762034,0.688313449704204
"1116",-4.9,"V27",0.00388501662160804,0.00390022840320521,0.642812308508473
"1117",-4.9,"V28",0.0216891650381567,0.0221811693101209,-1.11391929147287
"1118",-4.9,"V29",0.00545487833409861,0.00548496315490932,0.300244841907862
"1119",-4.9,"V30",0.0104990980949368,0.0106117064078227,-0.36487090293918
"1120",-4.9,"V31",0.0100695288408413,0.0101730191596642,-0.322208874166529
"1121",-4.9,"V32",0.0114254897705442,0.0115591026240168,-0.45134438193912
"1122",-4.9,"V33",0.013534721774418,0.0137230437028894,-0.625139238027627
"1123",-4.9,"V34",0.0228235106405717,0.0233696512396338,-1.16732999793565
"1124",-4.9,"V35",0.02541922552654,0.0261004595133479,-1.28064476291008
"1125",-4.9,"V36",0.0124409429815492,0.0125996953032848,-0.538597096976455
"1126",-4.9,"V37",0.0687369509006893,0.0742500157377447,-2.37683378684522
"1127",-4.9,"V38",0.0141823014499369,0.0143893549868752,-0.673227302927135
"1128",-4.9,"V39",0.00592711751910925,0.00596267096413579,0.216256231279751
"1129",-4.9,"V40",0.0154899459194804,0.0157376185573366,-0.764161423455317
"1130",-4.9,"V41",0.00308971038363951,0.00309931614420122,0.873469661499894
"1131",-4.9,"V42",0.006703533079665,0.00674908320375622,0.0915766437268598
"1132",-4.9,"V43",0.0320397794931333,0.0331378999031227,-1.52662176014911
"1133",-4.9,"V44",0.00727132462531356,0.00732497995667932,0.00911292101785717
"1134",-4.9,"V45",0.000470656227599554,0.000470877953646785,2.76044063044325
"1135",-4.9,"V46",0.0417733335436104,0.0436813980820094,-1.81383121516109
"1136",-4.9,"V47",0.085133986286156,0.0939630389806317,-2.63382140157402
"1137",-4.9,"V48",0.00502808432021697,0.0050536234299891,0.382583345923531
"1138",-4.9,"V49",0.0571547008403947,0.0608584520230347,-2.16358449793119
"1139",-4.9,"V50",0.00150587939069453,0.00150815391893774,1.59535965401608
"1140",-4.9,"V51",0.004623436096186,0.00464501223484788,0.467305438909344
"1141",-4.9,"V52",0.0129871958285596,0.0131603917392912,-0.582704170944375
"1142",-4.9,"V53",0.00112583048972517,0.00112710084604232,1.88697882957822
"1143",-4.9,"V54",0.0485274021981562,0.0511430096324178,-1.97936772680769
"1144",-4.9,"V55",0.0268486057707928,0.0276109715190167,-1.3384572530879
"1145",-4.9,"V56",0.00324048700311449,0.00325105637063957,0.825518945797471
"1146",-4.9,"V57",0.00150547122272696,0.00150774451625326,1.59563156037276
"1147",-4.9,"V58",0.000784062439407925,0.000784678159221484,2.24945192632264
"1148",-4.9,"V59",0.00204513892068861,0.00204933870983625,1.28818667696205
"1149",-4.9,"V60",0.0170023363417485,0.0173016846328843,-0.860501703309402
"1150",-4.9,"V61",0.0040590115968824,0.00407562229396547,0.598647883494726
"1151",-4.9,"V62",0.00182456997737622,0.00182791123686608,1.40275178073697
"1152",-4.9,"V63",0.00788547072184648,0.00794865178707871,-0.0732274594971757
"1153",-4.9,"V64",0.0484933504378408,0.0511050795986223,-1.97858583150932
"1154",-4.9,"V65",0.00193110025662875,0.00193484387745889,1.34579192113344
"1155",-4.9,"V66",0.0114196928747504,0.0115531685789644,-0.450824881152559
"1156",-4.9,"V67",0.0417403319793254,0.0436452388539431,-1.81296526754561
"1157",-4.9,"V68",0.00294369730796363,0.00295241405672598,0.922175337932673
"1158",-4.9,"V69",0.0105077582187366,0.0106205543943806,-0.365713293339348
"1159",-4.9,"V70",0.00787856958107654,0.00794163921448966,-0.0723377671473736
"1160",-4.9,"V71",0.00193158510562643,0.0019353306101972,1.34553990332965
"1161",-4.9,"V72",0.0340640001060863,0.0353108567075041,-1.5923845539667
"1162",-4.9,"V73",0.0624570331516122,0.0669376871068232,-2.26529015716672
"1163",-4.9,"V74",0.0524616238798994,0.0555471047230082,-2.06662558148696
"1164",-4.9,"V75",0.0148004565258276,0.0150262445511382,-0.717183312410626
"1165",-4.9,"V76",0.00103550667899983,0.00103658117954161,1.97079018952272
"1166",-4.9,"V77",0.00371764549339183,0.00373157010886924,0.687187643396035
"1167",-4.9,"V78",0.0228197807340393,0.0233657384682038,-1.16715854792316
"1168",-4.9,"V79",0.00927097599847458,0.00935855861787885,-0.23793863090816
"1169",-4.9,"V80",0.0301575865741799,0.0311264419634862,-1.46192356554172
"1170",-4.9,"V81",0.00890608869479989,0.0089868522073975,-0.197034841947265
"1171",-4.9,"V82",0.00927444717726322,0.00936209601913472,-0.238320116006974
"1172",-4.9,"V83",0.085050281152078,0.0938599763038343,-2.63261021226122
"1173",-4.9,"V84",0.10960331419809,0.125304542592373,-2.95687133787729
"1174",-4.9,"V85",0.0319961711570073,0.0330911985805015,-1.52516316294437
"1175",-4.9,"V86",0.0417842650281562,0.0436933761473062,-1.81411791716217
"1176",-4.9,"V87",0.00853795062009301,0.00861211921750961,-0.154064561426484
"1177",-4.9,"V88",0.00216273870561287,0.00216743648653604,1.23204036359853
"1178",-4.9,"V89",0.00161065055857481,0.00161325314428234,1.52788799627584
"1179",-4.9,"V90",0.00266938915617904,0.00267655309263675,1.02054533027096
"1180",-4.9,"V91",0.00171491574616629,0.00171786681255196,1.46495263909532
"1181",-4.9,"V92",0.00698515798730394,0.00703464420641479,0.0498486605048842
"1182",-4.9,"V93",0.00569243532130034,0.00572521338965745,0.25713379168637
"1183",-4.9,"V94",0.0092742558245951,0.00936190101521376,-0.23829908985534
"1184",-4.9,"V95",0.0119182258392343,0.0120637601481463,-0.494587768346265
"1185",-4.9,"V96",0.00569046629292949,0.00572322155793065,0.257483760756462
"1186",-4.9,"V97",0.00616646725095227,0.00620496888987661,0.176180574341046
"1187",-4.9,"V98",0.000192437697232663,0.000192474743759649,3.65535312082325
"1188",-4.9,"V99",0.00121540297555587,0.00121688378169402,1.8102443404829
"1189",-4.8,"V1",0.00357020092282765,0.00358303909196218,0.82795445676805
"1190",-4.8,"V2",0.0295111166641647,0.0304375618345998,-1.33883255731887
"1191",-4.8,"V3",0.00341498974574564,0.00342673223958747,0.87271555480607
"1192",-4.8,"V4",0.0374042158726708,0.0389188963671042,-1.59342110002064
"1193",-4.8,"V5",0.00469082538235085,0.00471303811058265,0.552698365309909
"1194",-4.8,"V6",0.0829665983744125,0.0913027995867999,-2.50216952490582
"1195",-4.8,"V7",0.00906570440513995,0.00914941622234974,-0.115126326634386
"1196",-4.8,"V8",0.0170658281551747,0.0173674567076674,-0.764362912101745
"1197",-4.8,"V9",0.00239211319068833,0.00239786293735467,1.23077663866211
"1198",-4.8,"V10",0.0330884729759137,0.0342623839283686,-1.46115589556288
"1199",-4.8,"V11",0.00510229381530888,0.005128596315476,0.467781487251019
"1200",-4.8,"V12",0.082654929209295,0.0909216813485405,-2.49756724182968
"1201",-4.8,"V13",0.0251070067547933,0.0257711594122447,-1.16760978911115
"1202",-4.8,"V14",0.00358052803501466,0.00359344085217273,0.825045168092404
"1203",-4.8,"V15",0.00510301297822434,0.00512932293196472,0.467639087516328
"1204",-4.8,"V16",0.0178713622074272,0.018202700513408,-0.812185091886814
"1205",-4.8,"V17",0.0163280904045759,0.0166037757745473,-0.718618010336219
"1206",-4.8,"V18",0.00265861707594468,0.00266572315588852,1.12461062259726
"1207",-4.8,"V19",0.00835361857597998,0.00842459233193935,-0.0318600879712875
"1208",-4.8,"V20",0.0155964938182086,0.0158476415612628,-0.671239970977042
"1209",-4.8,"V21",0.00280341889971892,0.00281132243354427,1.07128500779965
"1210",-4.8,"V22",0.0149347385646867,0.0151647069000512,-0.626496401495401
"1211",-4.8,"V23",0.00905854169574179,0.00914212005483888,-0.114321198758395
"1212",-4.8,"V24",0.188184680115319,0.251373131209273,-3.70869772691176
"1213",-4.8,"V25",0.0295008993539281,0.0304266823529345,-1.33846383642096
"1214",-4.8,"V26",0.00410082943813815,0.00411778559635571,0.688313449704204
"1215",-4.8,"V27",0.00429008715774078,0.00430865163666693,0.642812308508473
"1216",-4.8,"V28",0.0238587883692746,0.0244569297837204,-1.11391929147287
"1217",-4.8,"V29",0.00602162364180068,0.00605832696744515,0.300244841907862
"1218",-4.8,"V30",0.0115774416170891,0.0117146752329015,-0.36487090293918
"1219",-4.8,"V31",0.0111047755951554,0.0112309089101024,-0.322208874166529
"1220",-4.8,"V32",0.0125964738043792,0.0127592728479886,-0.45134438193912
"1221",-4.8,"V33",0.0149150969430619,0.0151444513497467,-0.625139238027627
"1222",-4.8,"V34",0.0251003449407896,0.0257641356253089,-1.16732999793565
"1223",-4.8,"V35",0.0279389927005163,0.0287665044805456,-1.28064476291008
"1224",-4.8,"V36",0.0137130015104613,0.0139063891702147,-0.538597096976455
"1225",-4.8,"V37",0.0747934035140334,0.0814231295377556,-2.37683378684522
"1226",-4.8,"V38",0.015626534753375,0.0158786668131377,-0.673227302927135
"1227",-4.8,"V39",0.00654227002779657,0.00658564069110896,0.216256231279751
"1228",-4.8,"V40",0.0170625093339394,0.017364018471415,-0.764161423455317
"1229",-4.8,"V41",0.00341243307950185,0.00342415793707992,0.873469661499894
"1230",-4.8,"V42",0.00739804371015659,0.00745359986104516,0.0915766437268598
"1231",-4.8,"V43",0.0351639029234354,0.0364958499899223,-1.52662176014911
"1232",-4.8,"V44",0.00802368925282448,0.00808912316642609,0.00911292101785717
"1233",-4.8,"V45",0.000520104059998657,0.000520374849983152,2.76044063044325
"1234",-4.8,"V46",0.045745398046234,0.0480546471598961,-1.81383121516109
"1235",-4.8,"V47",0.0922552309459,0.102829043038014,-2.63382140157402
"1236",-4.8,"V48",0.00555099035772481,0.00558215076488673,0.382583345923531
"1237",-4.8,"V49",0.0623648213303112,0.0668312353485205,-2.16358449793119
"1238",-4.8,"V50",0.00166372628653142,0.00166650352051531,1.59535965401608
"1239",-4.8,"V51",0.00510469840026031,0.00513102582629037,0.467305438909344
"1240",-4.8,"V52",0.0143134215756434,0.0145243791657952,-0.582704170944375
"1241",-4.8,"V53",0.0012439401895097,0.00124549143843291,1.88697882957822
"1242",-4.8,"V54",0.0530587582308453,0.0562193765280477,-1.97936772680769
"1243",-4.8,"V55",0.0295007169587987,0.0304264881392889,-1.3384572530879
"1244",-4.8,"V56",0.00357884424545995,0.00359174487671939,0.825518945797471
"1245",-4.8,"V57",0.00166327547743939,0.00166605120405392,1.59563156037276
"1246",-4.8,"V58",0.000866380003510448,0.00086713192127935,2.24945192632264
"1247",-4.8,"V59",0.00225925407579096,0.00226438149936563,1.28818667696205
"1248",-4.8,"V60",0.0187222902395697,0.0190865880842682,-0.860501703309402
"1249",-4.8,"V61",0.0044820583979406,0.00450232936767563,0.598647883494726
"1250",-4.8,"V62",0.00201568659880296,0.0020197660537147,1.40275178073697
"1251",-4.8,"V63",0.00870024060885333,0.00877728127544155,-0.0732274594971757
"1252",-4.8,"V64",0.0530219475698941,0.0561779045269311,-1.97858583150932
"1253",-4.8,"V65",0.00213332753649421,0.00213789814497249,1.34579192113344
"1254",-4.8,"V66",0.0125900984876454,0.0127527306260664,-0.450824881152559
"1255",-4.8,"V67",0.0457096045585545,0.048015049540977,-1.81296526754561
"1256",-4.8,"V68",0.00325126925205112,0.00326190930436099,0.922175337932673
"1257",-4.8,"V69",0.0115869696661624,0.0117244319712099,-0.365713293339348
"1258",-4.8,"V70",0.00869263921579452,0.00876954411986477,-0.0723377671473736
"1259",-4.8,"V71",0.00213386294107582,0.00213843584895592,1.34553990332965
"1260",-4.8,"V72",0.0373684781252613,0.0388801436993428,-1.5923845539667
"1261",-4.8,"V73",0.0680639962229358,0.0734604311707245,-2.26529015716672
"1262",-4.8,"V74",0.057307530906378,0.0610324965403224,-2.06662558148696
"1263",-4.8,"V75",0.0163054575951439,0.0165803661363597,-0.717183312410626
"1264",-4.8,"V76",0.00114416238447107,0.00114547449629272,1.97079018952272
"1265",-4.8,"V77",0.00410541069205457,0.00412240491433228,0.687187643396035
"1266",-4.8,"V78",0.0250962635492448,0.0257598325207414,-1.16715854792316
"1267",-4.8,"V79",0.0102258735541194,0.0103326369402586,-0.23793863090816
"1268",-4.8,"V80",0.0331121412193284,0.0342877940394179,-1.46192356554172
"1269",-4.8,"V81",0.00982417070528136,0.00992262927705116,-0.197034841947265
"1270",-4.8,"V82",0.010229694655407,0.010336538687444,-0.238320116006974
"1271",-4.8,"V83",0.0921665025464906,0.102717358227786,-2.63261021226122
"1272",-4.8,"V84",0.117999806509524,0.136681691225894,-2.95687133787729
"1273",-4.8,"V85",0.0351163861990394,0.0364445946804626,-1.52516316294437
"1274",-4.8,"V86",0.0457572542055706,0.0480677641565836,-1.81411791716217
"1275",-4.8,"V87",0.00941882490093002,0.00950925075077106,-0.154064561426484
"1276",-4.8,"V88",0.00238910659685939,0.00239484186441495,1.23204036359853
"1277",-4.8,"V89",0.00177944027958814,0.0017826180065454,1.52788799627584
"1278",-4.8,"V90",0.00294847106785308,0.00295721619547989,1.02054533027096
"1279",-4.8,"V91",0.00189459035789349,0.00189819349644343,1.46495263909532
"1280",-4.8,"V92",0.007708383305998,0.00776873657395348,0.0498486605048842
"1281",-4.8,"V93",0.00628354472134413,0.00632353177545938,0.25713379168637
"1282",-4.8,"V94",0.0102294840130137,0.0103363235985476,-0.23829908985534
"1283",-4.8,"V95",0.0131383167875615,0.0133156225925898,-0.494587768346265
"1284",-4.8,"V96",0.00628137385677017,0.00632133310904569,0.257483760756462
"1285",-4.8,"V97",0.00680611427546925,0.00685307896679437,0.176180574341046
"1286",-4.8,"V98",0.00021266793647001,0.000212713183368389,3.65535312082325
"1287",-4.8,"V99",0.00134288427356606,0.00134469247140873,1.8102443404829
"1288",-4.7,"V1",0.00394271019684301,0.00395837896084063,0.82795445676805
"1289",-4.7,"V2",0.0324070166074786,0.0335313693370996,-1.33883255731887
"1290",-4.7,"V3",0.00377142847303845,0.00378576045526308,0.87271555480607
"1291",-4.7,"V4",0.0410017134788759,0.0428366960033601,-1.59342110002064
"1292",-4.7,"V5",0.00517902829690354,0.00520613210843401,0.552698365309909
"1293",-4.7,"V6",0.08995638296086,0.0999454824162837,-2.50216952490582
"1294",-4.7,"V7",0.00999989874601049,0.010101948101455,-0.115126326634386
"1295",-4.7,"V8",0.0187919453676142,0.0191590131525955,-0.764362912101745
"1296",-4.7,"V9",0.00264236103305225,0.00264938024875474,1.23077663866211
"1297",-4.7,"V10",0.0363062939738905,0.0377298343759252,-1.46115589556288
"1298",-4.7,"V11",0.00563282864037897,0.00566491995851536,0.467781487251019
"1299",-4.7,"V12",0.0896255726041162,0.0995322392552882,-2.49756724182968
"1300",-4.7,"V13",0.0275977304884372,0.0284045488858456,-1.16760978911115
"1301",-4.7,"V14",0.00395410617599954,0.003969866012154,0.825045168092404
"1302",-4.7,"V15",0.00563362172105029,0.00566572212828523,0.467639087516328
"1303",-4.7,"V16",0.01967550430586,0.0200786567632775,-0.812185091886814
"1304",-4.7,"V17",0.0179824726058482,0.0183180225562184,-0.718618010336219
"1305",-4.7,"V18",0.00293657946523385,0.00294525398627753,1.12461062259726
"1306",-4.7,"V19",0.00921583820329246,0.00930237233433914,-0.0318600879712875
"1307",-4.7,"V20",0.0171794772207812,0.0174852097818982,-0.671239970977042
"1308",-4.7,"V21",0.00309642573202503,0.00310607342414119,1.07128500779965
"1309",-4.7,"V22",0.0164529158250456,0.0167329059671511,-0.626496401495401
"1310",-4.7,"V23",0.00999201326023275,0.0100939000790384,-0.114321198758395
"1311",-4.7,"V24",0.197400839364095,0.270654931084393,-3.70869772691176
"1312",-4.7,"V25",0.0323958705800047,0.0335194222478332,-1.33846383642096
"1313",-4.7,"V26",0.00452819452365052,0.00454888689563984,0.688313449704204
"1314",-4.7,"V27",0.0047369855088915,0.00475963967876315,0.642812308508473
"1315",-4.7,"V28",0.0262329150971953,0.0269597428306924,-1.11391929147287
"1316",-4.7,"V29",0.00664645092742862,0.00669122339799044,0.300244841907862
"1317",-4.7,"V30",0.0127635818395683,0.0129307870944503,-0.36487090293918
"1318",-4.7,"V31",0.012243734216992,0.0123974304999942,-0.322208874166529
"1319",-4.7,"V32",0.0138839695970555,0.0140822802130544,-0.45134438193912
"1320",-4.7,"V33",0.0164313474479242,0.016710591309849,-0.625139238027627
"1321",-4.7,"V34",0.0275904484454799,0.028396828303159,-1.16732999793565
"1322",-4.7,"V35",0.0306913739472563,0.0316960110646678,-1.28064476291008
"1323",-4.7,"V36",0.0151109770957365,0.0153464919096701,-0.538597096976455
"1324",-4.7,"V37",0.0812617898979196,0.0892224323285406,-2.37683378684522
"1325",-4.7,"V38",0.0172124550537288,0.0175193838647285,-0.673227302927135
"1326",-4.7,"V39",0.00722032126201346,0.00727322100581286,0.216256231279751
"1327",-4.7,"V40",0.0187883044283856,0.019155227155775,-0.764161423455317
"1328",-4.7,"V41",0.00376860699527805,0.0037829174597856,0.873469661499894
"1329",-4.7,"V42",0.00816329929044477,0.00823104946575244,0.0915766437268598
"1330",-4.7,"V43",0.0385655026129039,0.0401799293342057,-1.52662176014911
"1331",-4.7,"V44",0.00885247928535137,0.00893226463689489,0.00911292101785717
"1332",-4.7,"V45",0.000574740970568788,0.00057507167800363,2.76044063044325
"1333",-4.7,"V46",0.0500493116028914,0.0528415399468455,-1.81383121516109
"1334",-4.7,"V47",0.0997877924084089,0.112427803381627,-2.63382140157402
"1335",-4.7,"V48",0.0061275962205137,0.00616561097926129,0.382583345923531
"1336",-4.7,"V49",0.0679650174335163,0.0733444216156507,-2.16358449793119
"1337",-4.7,"V50",0.00183805754679304,0.00184144847929493,1.59535965401608
"1338",-4.7,"V51",0.00563548037494436,0.00566760208837653,0.467305438909344
"1339",-4.7,"V52",0.0157705600698324,0.0160274388664502,-0.582704170944375
"1340",-4.7,"V53",0.00137440643212692,0.00137630063556638,1.88697882957822
"1341",-4.7,"V54",0.0579516754056819,0.0617668148185054,-1.97936772680769
"1342",-4.7,"V55",0.032395671605327,0.0335192089756825,-1.3384572530879
"1343",-4.7,"V56",0.00395224811586973,0.00396799308499228,0.825518945797471
"1344",-4.7,"V57",0.00183755967508992,0.00184094876745431,1.59563156037276
"1345",-4.7,"V58",0.000957323365766719,0.000958241592716731,2.24945192632264
"1346",-4.7,"V59",0.00249567308504688,0.00250193275254514,1.28818667696205
"1347",-4.7,"V60",0.0206085104995374,0.021051683894324,-0.860501703309402
"1348",-4.7,"V61",0.00494875287627491,0.0049734884637742,0.598647883494726
"1349",-4.7,"V62",0.00222673210071489,0.00223171264203149,1.40275178073697
"1350",-4.7,"V63",0.00959752548842357,0.00969144968542877,-0.0732274594971757
"1351",-4.7,"V64",0.0579119723904549,0.0617215181992788,-1.97858583150932
"1352",-4.7,"V65",0.00235663168058681,0.00236221172481968,1.34579192113344
"1353",-4.7,"V66",0.0138769617245641,0.0140750693003745,-0.450824881152559
"1354",-4.7,"V67",0.0500105649623025,0.0527982166429817,-1.81296526754561
"1355",-4.7,"V68",0.0035907441346346,0.0036037310118403,0.922175337932673
"1356",-4.7,"V69",0.0127740598797301,0.0129415434259766,-0.365713293339348
"1357",-4.7,"V70",0.00958915572975261,0.00968291456421041,-0.0723377671473736
"1358",-4.7,"V71",0.00235722286161634,0.00236280571245113,1.34553990332965
"1359",-4.7,"V72",0.0409628710521642,0.0427942159728993,-1.5923845539667
"1360",-4.7,"V73",0.0740733608841645,0.0805639034181303,-2.26529015716672
"1361",-4.7,"V74",0.0625293085243728,0.0670211419992575,-2.06662558148696
"1362",-4.7,"V75",0.0179576348819472,0.0182922409613347,-0.717183312410626
"1363",-4.7,"V76",0.00126419037896802,0.0012657926098993,1.97079018952272
"1364",-4.7,"V77",0.00453324880699375,0.00455398761014713,0.687187643396035
"1365",-4.7,"V78",0.0275859870568495,0.0283920983028905,-1.16715854792316
"1366",-4.7,"V79",0.0112768158753337,0.0114069340190487,-0.23793863090816
"1367",-4.7,"V80",0.0363320704393491,0.0377577155206905,-1.46192356554172
"1368",-4.7,"V81",0.0108347622484846,0.0109547692170842,-0.197034841947265
"1369",-4.7,"V82",0.0112810204338549,0.0114112367582068,-0.238320116006974
"1370",-4.7,"V83",0.0996941363533281,0.11230699819745,-2.63261021226122
"1371",-4.7,"V84",0.126740005400986,0.148915972167611,-2.95687133787729
"1372",-4.7,"V85",0.0385138029655467,0.0401237155120376,-1.52516316294437
"1373",-4.7,"V86",0.0500621458083832,0.0528558910243625,-1.81411791716217
"1374",-4.7,"V87",0.010388621721143,0.0104988475203996,-0.154064561426484
"1375",-4.7,"V88",0.00263904158485701,0.00264604312909806,1.23204036359853
"1376",-4.7,"V89",0.00196584846549727,0.00196972829505361,1.52788799627584
"1377",-4.7,"V90",0.00325653850942719,0.00326721319146568,1.02054533027096
"1378",-4.7,"V91",0.00209301040656565,0.0020974095333161,1.46495263909532
"1379",-4.7,"V92",0.00850517714981654,0.00857877248720374,0.0498486605048842
"1380",-4.7,"V93",0.00693516333754374,0.00698393873783761,0.25713379168637
"1381",-4.7,"V94",0.0112807886531432,0.0114109995641973,-0.23829908985534
"1382",-4.7,"V95",0.0144795025679171,0.0146954590856552,-0.494587768346265
"1383",-4.7,"V96",0.00693277055319908,0.00698151206389742,0.257483760756462
"1384",-4.7,"V97",0.00751108850747937,0.00756836871244692,0.176180574341046
"1385",-4.7,"V98",0.000235023902923548,0.00023507916513743,3.65535312082325
"1386",-4.7,"V99",0.00148369695942155,0.0014859048727123,1.8102443404829
"1387",-4.6,"V1",0.0043537429117641,0.00437286485883776,0.82795445676805
"1388",-4.6,"V2",0.0355640152382617,0.0369276678943792,-1.33883255731887
"1389",-4.6,"V3",0.00416475599673814,0.00418224718828203,0.87271555480607
"1390",-4.6,"V4",0.0449083499224435,0.04712954382345,-1.59342110002064
"1391",-4.6,"V5",0.00571744875191201,0.00575051719997927,0.552698365309909
"1392",-4.6,"V6",0.0973596567646649,0.109307866427624,-2.50216952490582
"1393",-4.6,"V7",0.0110281515261032,0.0111525304618047,-0.115126326634386
"1394",-4.6,"V8",0.0206848687102588,0.0211314049869827,-0.764362912101745
"1395",-4.6,"V9",0.0029186338590247,0.00292720237275577,1.23077663866211
"1396",-4.6,"V10",0.0398081098039066,0.0415331089423213,-1.46115589556288
"1397",-4.6,"V11",0.00621782721847293,0.00625697697939359,0.467781487251019
"1398",-4.6,"V12",0.0970099656566518,0.108860594744856,-2.49756724182968
"1399",-4.6,"V13",0.0303187939350959,0.0312983826943798,-1.16760978911115
"1400",-4.6,"V14",0.00436631639116852,0.00438554943501549,0.825045168092404
"1401",-4.6,"V15",0.0062187016160447,0.0062578624585954,0.467639087516328
"1402",-4.6,"V16",0.0216532486698027,0.0221435871203597,-0.812185091886814
"1403",-4.6,"V17",0.0197973521629212,0.0202056192106051,-0.718618010336219
"1404",-4.6,"V18",0.00324341258543798,0.00325400110865309,1.12461062259726
"1405",-4.6,"V19",0.0101651766600749,0.0102706631822787,-0.0318600879712875
"1406",-4.6,"V20",0.0189166217451005,0.0192886747174563,-0.671239970977042
"1407",-4.6,"V21",0.00341984499216737,0.00343162101495767,1.07128500779965
"1408",-4.6,"V22",0.0181194541947968,0.0184602344507744,-0.626496401495401
"1409",-4.6,"V23",0.0110194738392024,0.0111436548833619,-0.114321198758395
"1410",-4.6,"V24",0.206252578440341,0.290841157108625,-3.70869772691176
"1411",-4.6,"V25",0.0355518724236256,0.036914556937519,-1.33846383642096
"1412",-4.6,"V26",0.00499964398915425,0.00502489354428565,0.688313449704204
"1413",-4.6,"V27",0.00522994135043431,0.00525758353506247,0.642812308508473
"1414",-4.6,"V28",0.0288281455543715,0.0297108820676067,-1.11391929147287
"1415",-4.6,"V29",0.00733513684494604,0.00738974517875294,0.300244841907862
"1416",-4.6,"V30",0.0140676510421393,0.0142713216641819,-0.36487090293918
"1417",-4.6,"V31",0.0134962020184274,0.0136834385078248,-0.322208874166529
"1418",-4.6,"V32",0.0152988093769749,0.0155403106314984,-0.45134438193912
"1419",-4.6,"V33",0.0180957859142171,0.0184356594537103,-0.625139238027627
"1420",-4.6,"V34",0.0303108429789208,0.0312899008757341,-1.16732999793565
"1421",-4.6,"V35",0.0336942003668109,0.0349131267889954,-1.28064476291008
"1422",-4.6,"V36",0.0166464342215126,0.0169331663439443,-0.538597096976455
"1423",-4.6,"V37",0.088146148202022,0.0976893590793577,-2.37683378684522
"1424",-4.6,"V38",0.0189527982242237,0.0193263042605968,-0.673227302927135
"1425",-4.6,"V39",0.0079674952425262,0.00803200840148777,0.216256231279751
"1426",-4.6,"V40",0.0206808774533194,0.0211272376228936,-0.764161423455317
"1427",-4.6,"V41",0.00416164275081101,0.00417910769191161,0.873469661499894
"1428",-4.6,"V42",0.0090062414097673,0.00908884857824558,0.0915766437268598
"1429",-4.6,"V43",0.0422635261853495,0.0442188312197942,-1.52662176014911
"1430",-4.6,"V44",0.00976514700046573,0.00986241421460619,0.00911292101785717
"1431",-4.6,"V45",0.000635110179811733,0.000635514057929559,2.76044063044325
"1432",-4.6,"V46",0.0547033382340516,0.0580761810380115,-1.81383121516109
"1433",-4.6,"V47",0.10772011143697,0.122799935626955,-2.63382140157402
"1434",-4.6,"V48",0.00676326711082862,0.00680963828439289,0.382583345923531
"1435",-4.6,"V49",0.073967434345282,0.080437649860336,-2.16358449793119
"1436",-4.6,"V50",0.00203058115788419,0.00203472124844306,1.59535965401608
"1437",-4.6,"V51",0.00622075084204228,0.00625993766156901,0.467305438909344
"1438",-4.6,"V52",0.0173705546709937,0.0176832520749395,-0.582704170944375
"1439",-4.6,"V53",0.00151851438638684,0.00152082730206956,1.88697882957822
"1440",-4.6,"V54",0.0632224432258451,0.0678223087963067,-1.97936772680769
"1441",-4.6,"V55",0.0355516556541053,0.0369143228884155,-1.3384572530879
"1442",-4.6,"V56",0.00436426634939247,0.0043834812573258,0.825518945797471
"1443",-4.6,"V57",0.00203003135095486,0.00203416919526984,1.59563156037276
"1444",-4.6,"V58",0.00105779272539692,0.0010589140243078,2.24945192632264
"1445",-4.6,"V59",0.0027566943826524,0.00276433593581845,1.28818667696205
"1446",-4.6,"V60",0.0226754074816503,0.0232143117517581,-0.860501703309402
"1447",-4.6,"V61",0.00546350071806386,0.00549368125175979,0.598647883494726
"1448",-4.6,"V62",0.00245976475554191,0.00246584514783501,1.40275178073697
"1449",-4.6,"V63",0.010585316706871,0.0106998024799816,-0.0732274594971757
"1450",-4.6,"V64",0.0631797272538606,0.0677728921664683,-1.97858583150932
"1451",-4.6,"V65",0.0026031871866327,0.00260999928288938,1.34579192113344
"1452",-4.6,"V66",0.0152911105289227,0.0155323648879347,-0.450824881152559
"1453",-4.6,"V67",0.0546614839487641,0.0580288289365064,-1.81296526754561
"1454",-4.6,"V68",0.00396537960343621,0.00398122979410972,0.922175337932673
"1455",-4.6,"V69",0.0140791678242294,0.0142831769685442,-0.365713293339348
"1456",-4.6,"V70",0.0105761044883854,0.010690388903289,-0.0723377671473736
"1457",-4.6,"V71",0.00260383989295635,0.00261065541465039,1.34553990332965
"1458",-4.6,"V72",0.044866205691133,0.0470830160958114,-1.5923845539667
"1459",-4.6,"V73",0.080493899140253,0.0882888137787036,-2.26529015716672
"1460",-4.6,"V74",0.0681415721776812,0.0735513772770291,-2.06662558148696
"1461",-4.6,"V75",0.0197701146998038,0.0201772355335814,-0.717183312410626
"1462",-4.6,"V76",0.00139677452697361,0.00139873097531492,1.97079018952272
"1463",-4.6,"V77",0.00500521912779155,0.0050305253127134,0.687187643396035
"1464",-4.6,"V78",0.0303059717633371,0.031284704498922,-1.16715854792316
"1465",-4.6,"V79",0.0124329599698466,0.0125915059930189,-0.23793863090816
"1466",-4.6,"V80",0.0398361397629873,0.0415636791908687,-1.46192356554172
"1467",-4.6,"V81",0.011946720098114,0.0120929597742148,-0.197034841947265
"1468",-4.6,"V82",0.0124375843533588,0.012596249863995,-0.238320116006974
"1469",-4.6,"V83",0.107621713220597,0.122669525774286,-2.63261021226122
"1470",-4.6,"V84",0.135782899464746,0.162039794450213,-2.95687133787729
"1471",-4.6,"V85",0.0422073660523177,0.0441572267242988,-1.52516316294437
"1472",-4.6,"V86",0.0547172016188488,0.0580918665818072,-1.81411791716217
"1473",-4.6,"V87",0.0114558900591899,0.0115902233361722,-0.154064561426484
"1474",-4.6,"V88",0.00291496939050968,0.00292351633828993,1.23204036359853
"1475",-4.6,"V89",0.00217169869012105,0.00217643556187605,1.52788799627584
"1476",-4.6,"V90",0.00359655956010065,0.00360958869061607,1.02054533027096
"1477",-4.6,"V91",0.00231211407782204,0.0023174848136837,1.46495263909532
"1478",-4.6,"V92",0.00938273589114274,0.00947246345505,0.0498486605048842
"1479",-4.6,"V93",0.00765329390409869,0.00771278089320528,0.25713379168637
"1480",-4.6,"V94",0.0124373294295732,0.0125959883521405,-0.23829908985534
"1481",-4.6,"V95",0.0159529752788822,0.0162159317204443,-0.494587768346265
"1482",-4.6,"V96",0.00765065725113254,0.0077101029384541,0.257483760756462
"1483",-4.6,"V97",0.00828783755261504,0.0083576885098426,0.176180574341046
"1484",-4.6,"V98",0.000259728739602347,0.000259796233685384,3.65535312082325
"1485",-4.6,"V99",0.0016392263539058,0.0016419222626223,1.8102443404829
"1486",-4.5,"V1",0.00480720738194705,0.00483054151325837,0.82795445676805
"1487",-4.5,"V2",0.0390007910625789,0.0406534979588709,-1.33883255731887
"1488",-4.5,"V3",0.00459872081692394,0.00462006582515268,0.87271555480607
"1489",-4.5,"V4",0.0491430246719317,0.0518293011272733,-1.59342110002064
"1490",-4.5,"V5",0.00631112200651984,0.00635146308990223,0.552698365309909
"1491",-4.5,"V6",0.105167157439885,0.119430896471987,-2.50216952490582
"1492",-4.5,"V7",0.0121594514454724,0.0123110124735975,-0.115126326634386
"1493",-4.5,"V8",0.0227590431170669,0.0233020276076967,-0.764362912101745
"1494",-4.5,"V9",0.00322360414061669,0.00323406330608445,1.23077663866211
"1495",-4.5,"V10",0.043612924056948,0.0457015563057121,-1.46115589556288
"1496",-4.5,"V11",0.00686272678134167,0.00691048153640669,0.467781487251019
"1497",-4.5,"V12",0.104799170993641,0.118947734547663,-2.49756724182968
"1498",-4.5,"V13",0.0332879421650734,0.0344765764916586,-1.16760978911115
"1499",-4.5,"V14",0.00482107759598975,0.00484454723389116,0.825045168092404
"1500",-4.5,"V15",0.00686369059198992,0.00691145885550121,0.467639087516328
"1501",-4.5,"V16",0.0238194670504329,0.0244155879871933,-0.812185091886814
"1502",-4.5,"V17",0.0217867638377306,0.0222833097302655,-0.718618010336219
"1503",-4.5,"V18",0.00358207308609573,0.00359499709017409,1.12461062259726
"1504",-4.5,"V19",0.011210026958754,0.0113385905954451,-0.0318600879712875
"1505",-4.5,"V20",0.020821537077211,0.0212741254926897,-0.671239970977042
"1506",-4.5,"V21",0.00377678660230474,0.0037911594926031,1.07128500779965
"1507",-4.5,"V22",0.0199475630565996,0.0203621814917005,-0.626496401495401
"1508",-4.5,"V23",0.0121499062323047,0.0123012264033307,-0.114321198758395
"1509",-4.5,"V24",0.214614294776416,0.311889114553186,-3.70869772691176
"1510",-4.5,"V25",0.0389875819141788,0.0406391199875405,-1.33846383642096
"1511",-4.5,"V26",0.00551962565342244,0.0055504329594599,0.688313449704204
"1512",-4.5,"V27",0.00577359236172182,0.00580731729589704,0.642812308508473
"1513",-4.5,"V28",0.0316618500668596,0.0327333203264538,-1.11391929147287
"1514",-4.5,"V29",0.0080939939500429,0.00816058916557215,0.300244841907862
"1515",-4.5,"V30",0.0155005933487107,0.0157486121328207,-0.36487090293918
"1516",-4.5,"V31",0.0148727723664188,0.0151008067303254,-0.322208874166529
"1517",-4.5,"V32",0.0168526665704867,0.0171466750352512,-0.45134438193912
"1518",-4.5,"V33",0.0199216096128082,0.0203351270030378,-0.625139238027627
"1519",-4.5,"V34",0.033279271742328,0.0344672640321929,-1.16732999793565
"1520",-4.5,"V35",0.0369658859116323,0.0384438126420926,-1.28064476291008
"1521",-4.5,"V36",0.0183318034899763,0.0186807748385447,-0.538597096976455
"1522",-4.5,"V37",0.0954452602467547,0.106865494069466,-2.37683378684522
"1523",-4.5,"V38",0.0208611917660383,0.021315544190161,-0.673227302927135
"1524",-4.5,"V39",0.0087905863501803,0.00886924994476298,0.216256231279751
"1525",-4.5,"V40",0.0227546715388439,0.0232974423593302,-0.764161423455317
"1526",-4.5,"V41",0.00459528620607306,0.00461659919419288,0.873469661499894
"1527",-4.5,"V42",0.00993443470449584,0.0100351387134949,0.0915766437268598
"1528",-4.5,"V43",0.0462769936167676,0.0486431496219068,-1.52662176014911
"1529",-4.5,"V44",0.0107698031656716,0.0108883595391249,0.00911292101785717
"1530",-4.5,"V45",0.000701811482580568,0.000702304714492567,2.76044063044325
"1531",-4.5,"V46",0.0597247221226206,0.0637944545545307,-1.81383121516109
"1532",-4.5,"V47",0.116032661127489,0.13398451006479,-2.63382140157402
"1533",-4.5,"V48",0.0074638714039947,0.00752042824498263,0.382583345923531
"1534",-4.5,"V49",0.0803809077694552,0.0881516149958279,-2.16358449793119
"1535",-4.5,"V50",0.00224317908826739,0.00224823364277992,1.59535965401608
"1536",-4.5,"V51",0.00686594936381577,0.00691374929310366,0.467305438909344
"1537",-4.5,"V52",0.019126225176395,0.0195067380039498,-0.582704170944375
"1538",-4.5,"V53",0.00167768121609821,0.00168050531420929,1.88697882957822
"1539",-4.5,"V54",0.0688853908604492,0.0744243790587261,-1.97936772680769
"1540",-4.5,"V55",0.0389873461081317,0.0406388633200798,-1.3384572530879
"1541",-4.5,"V56",0.00481881613330694,0.00484226365056856,0.825518945797471
"1542",-4.5,"V57",0.00224257197796456,0.00224762379066894,1.59563156037276
"1543",-4.5,"V58",0.00116878141569816,0.00117015066828464,2.24945192632264
"1544",-4.5,"V59",0.00304484776090489,0.00305417575041934,1.28818667696205
"1545",-4.5,"V60",0.0249382801033211,0.0255932969522048,-0.860501703309402
"1546",-4.5,"V61",0.00603113081189896,0.00606795083928696,0.598647883494726
"1547",-4.5,"V62",0.0027170510364606,0.00272447379391432,1.40275178073697
"1548",-4.5,"V63",0.0116722995369457,0.0118118185954782,-0.0732274594971757
"1549",-4.5,"V64",0.0688395592174778,0.0743705358148684,-1.97858583150932
"1550",-4.5,"V65",0.00287538799119526,0.00288370373844639,1.34579192113344
"1551",-4.5,"V66",0.0168442138781759,0.0171379222574793,-0.450824881152559
"1552",-4.5,"V67",0.0596796167131934,0.0637427556053577,-1.81296526754561
"1553",-4.5,"V68",0.00437875459606946,0.00439809786086319,0.922175337932673
"1554",-4.5,"V69",0.0155132446126278,0.0157616750118056,-0.365713293339348
"1555",-4.5,"V70",0.011662164401981,0.0118014383490884,-0.0723377671473736
"1556",-4.5,"V71",0.0028761085505602,0.00288442847820609,1.34553990332965
"1557",-4.5,"V72",0.0490973845426418,0.0517783857762343,-1.5923845539667
"1558",-4.5,"V73",0.0873301926292897,0.096676547457614,-2.26529015716672
"1559",-4.5,"V74",0.0741563782882913,0.0806628782092997,-2.06662558148696
"1560",-4.5,"V75",0.0217569189344436,0.0222520737192506,-0.717183312410626
"1561",-4.5,"V76",0.00154322051948219,0.00154560942798607,1.97079018952272
"1562",-4.5,"V77",0.0055257740849615,0.00555665044917583,0.687187643396035
"1563",-4.5,"V78",0.0332739597241262,0.0344615587560209,-1.16715854792316
"1564",-4.5,"V79",0.0137042258287357,0.0138973625135692,-0.23793863090816
"1565",-4.5,"V80",0.0436433536723845,0.0457350483169371,-1.46192356554172
"1566",-4.5,"V81",0.0131696472724011,0.0133478113399685,-0.197034841947265
"1567",-4.5,"V82",0.013709309392329,0.0139025914411074,-0.238320116006974
"1568",-4.5,"V83",0.115929809175927,0.133844034837512,-2.63261021226122
"1569",-4.5,"V84",0.145076429327986,0.176080919561669,-2.95687133787729
"1570",-4.5,"V85",0.0462160964482941,0.0485756945492346,-1.52516316294437
"1571",-4.5,"V86",0.0597396621649714,0.0638115798934724,-1.81411791716217
"1572",-4.5,"V87",0.0126299072052916,0.012793582970515,-0.154064561426484
"1573",-4.5,"V88",0.00321955926443043,0.00322999211348359,1.23204036359853
"1574",-4.5,"V89",0.00239899985822588,0.00240478283872731,1.52788799627584
"1575",-4.5,"V90",0.00397179688165358,0.00398769862195311,1.02054533027096
"1576",-4.5,"V91",0.00255403608568449,0.00256059272076613,1.46495263909532
"1577",-4.5,"V92",0.0103488968529467,0.0104582723127136,0.0498486605048842
"1578",-4.5,"V93",0.00844449262053285,0.00851703246250013,0.25713379168637
"1579",-4.5,"V94",0.0137090291560478,0.0139023031900355,-0.23829908985534
"1580",-4.5,"V95",0.0175707812477719,0.0178908642721774,-0.494587768346265
"1581",-4.5,"V96",0.00844158814114529,0.00851407765953793,0.257483760756462
"1582",-4.5,"V97",0.00914339614228895,0.00922856250825777,0.176180574341046
"1583",-4.5,"V98",0.000287028964393061,0.000287111397347548,3.65535312082325
"1584",-4.5,"V99",0.00181099978463887,0.0018142914380611,1.8102443404829
"1585",-4.4,"V1",0.00530739177099597,0.00533586320716151,0.82795445676805
"1586",-4.4,"V2",0.042736314979496,0.0447377843258854,-1.33883255731887
"1587",-4.4,"V3",0.00507743708997755,0.00510348262488,0.87271555480607
"1588",-4.4,"V4",0.0537241516674171,0.0569696981778979,-1.59342110002064
"1589",-4.4,"V5",0.00696555955676208,0.00701476650589429,0.552698365309909
"1590",-4.4,"V6",0.113361996489209,0.130354218865153,-2.50216952490582
"1591",-4.4,"V7",0.0134035408973231,0.0135881795199906,-0.115126326634386
"1592",-4.4,"V8",0.025029801399355,0.0256897654481352,-0.764362912101745
"1593",-4.4,"V9",0.00356021127062737,0.00357297743840271,1.23077663866211
"1594",-4.4,"V10",0.0477397129886157,0.0502664266352975,-1.46115589556288
"1595",-4.4,"V11",0.00757347353329101,0.00763171663204281,0.467781487251019
"1596",-4.4,"V12",0.112976674801515,0.129833381842062,-2.49756724182968
"1597",-4.4,"V13",0.0365235217143248,0.0379648516771964,-1.16760978911115
"1598",-4.4,"V14",0.00532268949219404,0.00535132618412292,0.825045168092404
"1599",-4.4,"V15",0.00757453560620139,0.00763279516828235,0.467639087516328
"1600",-4.4,"V16",0.0261899081752303,0.0269142870210835,-0.812185091886814
"1601",-4.4,"V17",0.0239656365376315,0.0245692863703814,-0.718618010336219
"1602",-4.4,"V18",0.00395581113718879,0.00397158462159528,1.12461062259726
"1603",-4.4,"V19",0.0123595010476697,0.0125161551883691,-0.0318600879712875
"1604",-4.4,"V20",0.0229087296968801,0.0234590570547795,-0.671239970977042
"1605",-4.4,"V21",0.00417066819825366,0.00418820929535536,1.07128500779965
"1606",-4.4,"V22",0.0219513478742034,0.0224556019323475,-0.626496401495401
"1607",-4.4,"V23",0.0133930466023082,0.0135773921807378,-0.114321198758395
"1608",-4.4,"V24",0.222358755843407,0.33374343875626,-3.70869772691176
"1609",-4.4,"V25",0.042721969302742,0.0447220291983611,-1.33846383642096
"1610",-4.4,"V26",0.00609301415209691,0.00613059838870044,0.688313449704204
"1611",-4.4,"V27",0.00637301921188687,0.00641416066897429,0.642812308508473
"1612",-4.4,"V28",0.0347520695568476,0.0360518019830744,-1.11391929147287
"1613",-4.4,"V29",0.00892991183434124,0.00901111197333726,0.300244841907862
"1614",-4.4,"V30",0.0170741982894452,0.0173761281178118,-0.36487090293918
"1615",-4.4,"V31",0.0163848703849183,0.0166625096114706,-0.322208874166529
"1616",-4.4,"V32",0.0185580838782208,0.0189158949603727,-0.45134438193912
"1617",-4.4,"V33",0.0219229118289257,0.0224258296650934,-0.625139238027627
